Time(s),PPG(mV)
0.0000,0
0.0020,0
0.0030,0
0.0368,0
0.0368,0
0.0378,0
0.0388,0
0.0404,0
0.0460,0
0.0600,1
0.0600,0
0.0691,1
0.0829,1
0.0829,0
0.0889,1
0.1030,0
0.1090,1
0.1228,0
0.1228,0
0.1291,0
0.1555,0
0.1565,0
0.1565,0
0.1655,0
0.1665,0
0.1887,0
0.1897,0
0.1907,0
0.2040,0
0.2100,0
0.2240,0
0.2240,0
0.2300,1
0.2390,1
0.2508,0
0.2767,0
0.2767,0
0.2776,0
0.3033,0
0.3033,0
0.3043,0
0.3123,1
0.3133,0
0.3315,0
0.3325,1
0.3334,0
0.3428,0
0.3518,0
0.3678,0
0.3687,0
0.3942,0
0.3942,0
0.3952,0
0.4039,0
0.4039,0
0.4059,0
0.4349,0
0.4369,0
0.4497,0
0.4510,0
0.4519,0
0.4617,0
0.4708,0
0.4708,0
0.4776,0
0.5036,0
0.5046,0
0.5164,0
0.5174,0
0.5174,0
0.5317,1
0.5435,0
0.5525,0
0.5535,0
0.5585,0
0.5725,0
0.5805,0
0.6003,1
0.6003,0
0.6285,0
0.6297,0
0.6307,0
0.6337,0
0.6337,0
0.6479,0
0.6538,0
0.6548,0
0.6598,0
0.6734,0
0.6826,1
0.6836,0
0.6846,0
0.7020,0
0.7100,1
0.7240,0
0.7250,0
0.7464,1
0.7475,1
0.7485,0
0.7739,0
0.7739,0
0.7749,0
0.7759,0
0.8083,0
0.8102,0
0.8162,0
0.8162,0
0.8172,0
0.8340,0
0.8350,1
0.8390,0
0.8652,0
0.8662,1
0.8662,0
0.8753,0
0.8753,0
0.8890,1
0.8991,0
0.8991,0
0.9359,1
0.9379,0
0.9379,0
0.9389,1
0.9399,1
0.9507,1
0.9793,0
0.9803,1
0.9803,0
0.9873,0
0.9883,1
1.0055,1
1.0141,0
1.0141,0
1.0415,0
1.0431,1
1.0515,0
1.0525,0
1.0535,0
1.0575,0
1.0705,0
1.0992,0
1.0997,0
1.1177,0
1.1184,0
1.1205,0
1.1205,0
1.1363,0
1.1373,0
1.1384,1
1.1557,0
1.1557,0
1.1566,0
1.1699,0
1.1840,0
1.1860,1
1.1870,0
1.2128,0
1.2139,0
1.2278,0
1.2288,0
1.2288,0
1.2398,0
1.2484,0
1.2629,0
1.2629,0
1.2689,0
1.2826,0
1.2886,0
1.2886,0
1.3098,0
1.3108,0
1.3370,0
1.3380,0
1.3390,0
1.3390,0
1.3513,0
1.3603,0
1.3690,0
1.3828,0
1.3838,0
1.3908,0
1.4068,0
1.4068,0
1.4078,0
1.4188,0
1.4527,0
1.4537,0
1.4547,0
1.4640,0
1.4651,0
1.4661,0
1.4827,1
1.4838,1
1.4838,0
1.4976,0
1.5103,0
1.5103,1
1.5216,0
1.5349,0
1.5409,0
1.5425,0
1.5756,0
1.5764,0
1.5965,0
1.5975,1
1.5986,0
1.5986,0
1.5996,0
1.6275,1
1.6285,0
1.6295,0
1.6306,0
1.6414,1
1.6550,0
1.6550,0
1.6560,0
1.6855,0
1.6865,0
1.6875,0
1.7306,0
1.7316,0
1.7336,0
1.7352,0
1.7362,0
1.7372,0
1.7372,0
1.7503,0
1.7643,0
1.7643,0
1.7698,1
1.7839,1
1.8090,0
1.8099,0
1.8099,1
1.8240,0
1.8240,0
1.8340,1
1.8340,0
1.8398,0
1.8533,1
1.8596,0
1.8606,0
1.8748,0
1.8758,0
1.8910,0
1.9000,0
1.9010,1
1.9305,0
1.9315,0
1.9451,0
1.9461,0
1.9461,0
1.9471,0
1.9638,0
1.9777,0
1.9777,0
1.9788,0
1.9909,0
1.9999,0
2.0089,0
2.0089,0
2.0179,0
2.0485,0
2.0505,0
2.0546,0
2.0555,0
2.0565,0
2.0735,0
2.0788,0
2.0927,0
2.0927,1
2.1016,0
2.1096,0
2.1185,0
2.1496,0
2.1506,1
2.1516,0
2.1780,0
2.1780,0
2.1790,0
2.1811,0
2.1827,0
2.1827,0
2.2205,0
2.2215,1
2.2226,0
2.2266,0
2.2275,0
2.2275,0
2.2441,0
2.2451,0
2.2571,0
2.2581,0
2.2821,0
2.2831,1
2.2902,1
2.2990,0
2.3114,0
2.3117,0
2.3195,0
2.3337,0
2.3452,0
2.3452,0
2.3535,0
2.3585,0
2.3680,1
2.3680,1
2.4002,0
2.4012,1
2.4098,1
2.4108,0
2.4118,0
2.4208,0
2.4310,0
2.4400,0
2.4400,0
2.4539,0
2.4549,1
2.4679,0
2.4815,0
2.4815,0
2.4875,0
2.5164,0
2.5174,0
2.5184,1
2.5263,0
2.5352,0
2.5414,0
2.5652,1
2.5662,0
2.5672,0
2.5712,0
2.5810,1
2.5820,0
2.5887,0
2.6029,0
2.6091,0
2.6373,0
2.6383,120
2.6383,413
2.6393,767
2.6541,1114
2.6541,1439
2.6601,1720
2.6741,1953
2.6801,2140
2.6801,2261
2.7010,2344
2.7020,2384
2.7152,2379
2.7162,2348
2.7172,2285
2.7297,2212
2.7537,2129
2.7547,2035
2.7607,1950
2.7617,1861
2.7748,1783
2.7758,1713
2.7901,1639
2.7961,1588
2.8104,1544
2.8104,1512
2.8184,1492
2.8550,1473
2.8550,1477
2.8560,1485
2.8811,1489
2.8821,1507
2.8831,1524
2.8831,1554
2.8831,1584
2.8871,1608
2.9014,1650
2.9014,1686
2.9095,1720
2.9236,1753
2.9287,1772
2.9287,1801
2.9422,1819
2.9483,1831
2.9628,1846
2.9927,1850
2.9937,1858
2.9947,1855
3.0185,1841
3.0205,1832
3.0260,1812
3.0270,1796
3.0270,1772
3.0338,1747
3.0474,1735
3.0484,1710
3.0484,1694
3.0624,1682
3.0684,1666
3.0830,1662
3.0830,1645
3.1096,1635
3.1106,1636
3.1197,1628
3.1197,1627
3.1287,1619
3.1427,1619
3.1515,1631
3.1525,1628
3.1535,1632
3.1615,1638
3.1705,1642
3.1842,1651
3.1968,1642
3.1978,1646
3.1988,1661
3.2258,1677
3.2278,1710
3.2278,1752
3.2338,1820
3.2348,1904
3.2573,1989
3.2583,2085
3.2583,2176
3.2723,2269
3.2783,2357
3.2923,2428
3.2933,2499
3.3112,2548
3.3112,2583
3.3181,2607
3.3441,2601
3.3441,2589
3.3451,2558
3.3553,2505
3.3563,2448
3.3563,2368
3.3726,2292
3.3778,2204
3.3910,2109
3.3970,2024
3.3981,1935
3.4132,1858
3.4152,1789
3.4282,1718
3.4292,1672
3.4571,1626
3.4582,1588
3.4661,1558
3.4671,1531
3.4681,1522
3.4951,1517
3.4964,1516
3.4974,1535
3.5104,1550
3.5104,1575
3.5205,1601
3.5334,1629
3.5404,1670
3.5404,1698
3.5489,1729
3.5769,1765
3.5789,1793
3.5876,1829
3.5886,1849
3.5886,1872
3.6051,1894
3.6130,1903
3.6144,1912
3.6338,1906
3.6338,1898
3.6399,1896
3.6540,1875
3.6540,1859
3.6676,1838
3.6976,1819
3.6989,1805
3.6989,1775
3.6999,1754
3.7013,1739
3.7119,1720
3.7209,1708
3.7219,1690
3.7347,1682
3.7365,1676
3.7501,1662
3.7601,1654
3.7601,1644
3.7689,1640
3.7826,1642
3.7876,1632
3.8184,1633
3.8194,1635
3.8204,1637
3.8281,1640
3.8291,1638
3.8305,1648
3.8425,1653
3.8512,1653
3.8646,1663
3.8656,1665
3.8786,1677
3.8786,1683
3.8927,1681
3.8973,1690
3.8983,1694
3.9113,1710
3.9416,1732
3.9426,1756
3.9436,1812
3.9436,1877
3.9521,1956
3.9612,2051
3.9751,2146
3.9761,2253
3.9761,2349
3.9902,2439
3.9962,2532
4.0102,2599
4.0102,2656
4.0234,2692
4.0312,2707
4.0562,2709
4.0572,2684
4.0622,2640
4.0622,2583
4.0751,2505
4.0761,2423
4.0926,2320
4.0926,2219
4.0986,2123
4.1233,2024
4.1253,1936
4.1445,1846
4.1455,1774
4.1465,1720
4.1475,1660
4.1475,1618
4.1720,1583
4.1740,1554
4.1790,1538
4.1920,1518
4.1930,1516
4.2008,1524
4.2099,1535
4.2239,1557
4.2239,1574
4.2249,1603
4.2397,1637
4.2539,1663
4.2819,1701
4.2829,1736
4.2829,1778
4.3063,1819
4.3075,1845
4.3086,1876
4.3095,1896
4.3095,1910
4.3276,1921
4.3286,1920
4.3286,1928
4.3425,1928
4.3501,1915
4.3676,1910
4.3686,1892
4.4064,1880
4.4064,1862
4.4074,1833
4.4138,1814
4.4138,1789
4.4149,1768
4.4163,1743
4.4303,1718
4.4303,1708
4.4527,1691
4.4527,1681
4.4587,1677
4.4726,1668
4.4726,1669
4.4738,1663
4.4887,1656
4.5022,1663
4.5032,1660
4.5042,1665
4.5253,1663
4.5269,1661
4.5413,1670
4.5426,1670
4.5571,1676
4.5571,1683
4.5714,1686
4.5814,1702
4.5814,1706
4.5894,1715
4.5994,1727
4.6136,1730
4.6146,1737
4.6418,1733
4.6428,1738
4.6438,1757
4.6488,1772
4.6613,1806
4.6625,1855
4.6723,1927
4.6975,2014
4.6985,2100
4.6995,2201
4.7005,2300
4.7125,2393
4.7215,2481
4.7215,2548
4.7299,2614
4.7660,2660
4.7670,2681
4.7925,2691
4.7925,2676
4.7935,2650
4.8068,2606
4.8088,2532
4.8088,2461
4.8108,2371
4.8108,2274
4.8248,2178
4.8258,2073
4.8268,1981
4.8428,1896
4.8483,1813
4.8731,1746
4.8751,1677
4.9038,1630
4.9038,1588
4.9048,1551
4.9058,1534
4.9068,1515
4.9068,1506
4.9206,1506
4.9301,1509
4.9387,1530
4.9559,1547
4.9569,1574
4.9569,1610
4.9691,1648
4.9988,1697
4.9994,1736
5.0005,1774
5.0027,1821
5.0113,1855
5.0113,1894
5.0202,1918
5.0320,1935
5.0413,1958
5.0413,1961
5.0459,1962
5.0600,1959
5.0681,1946
5.0813,1939
5.0813,1913
5.0897,1890
5.1162,1871
5.1172,1843
5.1182,1821
5.1232,1793
5.1242,1774
5.1371,1758
5.1500,1730
5.1510,1713
5.1736,1694
5.1827,1684
5.1908,1681
5.1918,1666
5.2058,1666
5.2058,1668
5.2345,1667
5.2365,1674
5.2411,1670
5.2411,1675
5.2421,1683
5.2511,1682
5.2599,1687
5.2599,1692
5.2698,1704
5.2824,1715
5.2907,1716
5.2917,1725
5.2987,1728
5.3088,1732
5.3219,1739
5.3288,1738
5.3288,1758
5.3570,1784
5.3583,1820
5.3593,1883
5.3750,1953
5.3750,2048
5.3834,2149
5.3844,2251
5.4214,2365
5.4214,2469
5.4224,2568
5.4234,2652
5.4414,2714
5.4424,2771
5.4673,2795
5.4683,2802
5.4683,2786
5.4750,2740
5.4801,2683
5.4801,2601
5.4931,2502
5.4944,2402
5.5127,2282
5.5127,2172
5.5177,2054
5.5311,1944
5.5626,1849
5.5635,1755
5.5635,1679
5.5646,1615
5.5936,1560
5.5947,1529
5.5956,1494
5.5956,1470
5.5956,1463
5.6125,1461
5.6125,1471
5.6277,1482
5.6277,1506
5.6397,1538
5.6533,1567
5.6543,1608
5.6596,1650
5.6732,1700
5.6803,1750
5.6803,1786
5.7179,1833
5.7189,1875
5.7347,1908
5.7357,1939
5.7367,1950
5.7377,1963
5.7387,1970
5.7625,1962
5.7635,1957
5.7645,1940
5.7645,1925
5.7800,1907
5.7935,1875
5.7935,1854
5.7945,1831
5.8235,1809
5.8245,1786
5.8345,1755
5.8345,1737
5.8356,1712
5.8511,1685
5.8579,1668
5.8719,1646
5.8729,1641
5.8779,1632
5.8920,1625
5.9014,1634
5.9014,1639
5.9104,1651
5.9419,1662
5.9439,1670
5.9499,1687
5.9542,1693
5.9552,1697
5.9723,1700
5.9733,1700
5.9733,1709
5.9824,1707
5.9882,1706
6.0012,1713
6.0075,1712
6.0075,1720
6.0206,1724
6.0256,1740
6.0546,1782
6.0556,1828
6.0566,1901
6.0808,1990
6.0827,2097
6.0837,2222
6.0837,2334
6.0918,2449
6.1012,2565
6.1093,2662
6.1327,2748
6.1347,2804
6.1357,2845
6.1357,2870
6.1486,2852
6.1496,2826
6.1799,2774
6.1809,2706
6.1839,2623
6.1839,2511
6.2018,2402
6.2028,2288
6.2068,2168
6.2208,2062
6.2268,1949
6.2278,1852
6.2369,1764
6.2509,1680
6.2575,1618
6.2575,1562
6.2710,1525
6.2971,1503
6.2981,1478
6.3001,1477
6.3001,1476
6.3138,1483
6.3196,1500
6.3443,1514
6.3536,1547
6.3536,1583
6.3597,1620
6.3660,1662
6.3800,1698
6.3937,1745
6.3937,1784
6.4223,1815
6.4233,1854
6.4233,1881
6.4243,1905
6.4263,1920
6.4310,1928
6.4439,1941
6.4572,1938
6.4572,1930
6.4582,1917
6.4724,1899
6.4737,1887
6.4737,1860
6.4892,1832
6.5033,1812
6.5043,1785
6.5053,1765
6.5345,1737
6.5365,1715
6.5497,1705
6.5507,1686
6.5516,1677
6.5573,1668
6.5713,1663
6.5773,1668
6.5773,1663
6.5910,1668
6.5960,1674
6.6124,1675
6.6134,1686
6.6267,1683
6.6277,1690
6.6532,1706
6.6542,1708
6.6554,1717
6.6659,1720
6.6669,1727
6.6962,1737
6.6972,1731
6.6982,1735
6.6982,1743
6.7123,1750
6.7184,1769
6.7320,1793
6.7330,1849
6.7330,1929
6.7470,2018
6.7750,2124
6.7750,2232
6.7760,2348
6.7798,2463
6.7938,2560
6.7938,2657
6.7949,2737
6.8108,2803
6.8422,2843
6.8432,2853
6.8442,2851
6.8442,2816
6.8462,2758
6.8599,2685
6.8664,2586
6.8861,2490
6.8881,2379
6.8881,2259
6.9011,2149
6.9022,2033
6.9102,1928
6.9223,1833
6.9462,1744
6.9472,1678
6.9482,1611
6.9482,1558
6.9624,1522
6.9674,1492
6.9806,1482
6.9816,1476
7.0069,1477
7.0079,1492
7.0099,1509
7.0099,1538
7.0245,1559
7.0255,1589
7.0432,1632
7.0442,1663
7.0442,1701
7.0583,1740
7.0699,1779
7.0799,1825
7.0937,1854
7.0937,1886
7.0947,1916
7.1249,1935
7.1261,1953
7.1261,1954
7.1276,1954
7.1525,1952
7.1610,1934
7.1620,1918
7.1670,1894
7.1801,1875
7.1924,1855
7.1924,1824
7.2074,1809
7.2074,1791
7.2387,1769
7.2397,1754
7.2397,1727
7.2397,1714
7.2518,1701
7.2528,1683
7.2549,1673
7.2549,1661
7.2761,1659
7.2771,1655
7.2949,1648
7.2949,1655
7.2961,1655
7.3526,1662
7.3536,1668
7.3776,1670
7.3776,1685
7.3786,1693
7.3836,1701
7.3846,1714
7.3856,1721
7.3866,1738
7.3876,1744
7.3886,1745
7.4028,1756
7.4028,1759
7.4148,1768
7.4238,1777
7.4286,1792
7.4425,1838
7.4425,1894
7.4487,1975
7.4783,2070
7.4793,2174
7.4803,2295
7.4803,2409
7.4905,2519
7.4996,2629
7.5086,2718
7.5086,2796
7.5223,2845
7.5288,2875
7.5418,2892
7.5438,2868
7.5438,2822
7.5661,2749
7.5997,2658
7.6007,2559
7.6087,2439
7.6087,2320
7.6097,2199
7.6107,2078
7.6282,1969
7.6282,1860
7.6292,1769
7.6435,1695
7.6445,1621
7.6455,1566
7.6620,1517
7.6680,1485
7.6827,1470
7.6837,1451
7.7118,1447
7.7128,1455
7.7128,1470
7.7248,1497
7.7254,1519
7.7265,1560
7.7425,1601
7.7486,1637
7.7612,1679
7.7612,1718
7.7696,1766
7.7838,1812
7.7898,1845
7.7898,1887
7.7986,1913
7.8055,1939
7.8311,1957
7.8320,1958
7.8330,1968
7.8400,1966
7.8526,1955
7.8605,1946
7.8615,1922
7.8799,1904
7.8799,1877
7.8919,1844
7.9010,1822
7.9010,1792
7.9097,1770
7.9231,1746
7.9530,1719
7.9540,1710
7.9811,1695
7.9821,1684
7.9821,1675
7.9831,1666
7.9847,1673
7.9857,1672
7.9947,1671
8.0082,1680
8.0148,1683
8.0158,1696
8.0258,1702
8.0348,1707
8.0617,1718
8.0638,1721
8.0638,1728
8.0729,1732
8.0749,1737
8.0839,1749
8.0839,1744
8.0961,1750
8.1221,1756
8.1261,1759
8.1273,1766
8.1284,1758
8.1284,1759
8.1393,1769
8.1531,1769
8.1541,1787
8.1593,1803
8.1876,1838
8.1886,1897
8.1886,1963
8.2031,2057
8.2041,2162
8.2101,2270
8.2232,2384
8.2242,2485
8.2242,2589
8.2372,2676
8.2499,2739
8.2632,2788
8.2642,2809
8.2642,2812
8.2786,2791
8.3086,2736
8.3206,2673
8.3206,2584
8.3290,2482
8.3300,2371
8.3313,2244
8.3313,2133
8.3372,2017
8.3510,1904
8.3644,1808
8.3644,1713
8.3831,1644
8.3841,1585
8.3841,1534
8.3987,1503
8.3997,1475
8.4236,1462
8.4248,1456
8.4310,1452
8.4380,1471
8.4515,1485
8.4525,1511
8.4585,1543
8.4724,1576
8.4768,1624
8.4768,1663
8.4909,1711
8.4968,1767
8.5108,1814
8.5118,1868
8.5368,1906
8.5524,1940
8.5533,1978
8.5543,1994
8.5543,2008
8.5553,2014
8.5691,2013
8.5888,2012
8.6190,1989
8.6200,1969
8.6210,1949
8.6240,1921
8.6260,1895
8.6333,1860
8.6333,1834
8.6598,1814
8.6611,1784
8.6611,1761
8.6737,1733
8.6747,1718
8.6879,1708
8.6889,1688
8.6995,1682
8.6995,1677
8.7085,1671
8.7223,1677
8.7309,1673
8.7309,1682
8.7459,1693
8.7539,1698
8.7799,1712
8.7799,1719
8.7809,1735
8.7869,1744
8.7962,1746
8.7962,1757
8.8042,1755
8.8092,1758
8.8183,1756
8.8322,1746
8.8332,1757
8.8372,1771
8.8499,1798
8.8619,1846
8.8629,1902
8.8680,1993
8.8972,2091
8.8982,2194
8.9041,2308
8.9052,2419
8.9061,2534
8.9199,2635
8.9336,2716
8.9336,2796
8.9508,2840
8.9508,2864
8.9553,2862
8.9691,2827
8.9757,2778
8.9757,2698
8.9910,2601
9.0148,2495
9.0158,2378
9.0168,2265
9.0173,2140
9.0333,2026
9.0417,1927
9.0427,1824
9.0427,1740
9.0718,1663
9.0813,1598
9.0873,1555
9.0873,1508
9.0923,1476
9.0980,1459
9.1243,1448
9.1253,1455
9.1253,1461
9.1263,1486
9.1422,1520
9.1488,1549
9.1488,1592
9.1611,1631
9.1744,1681
9.1754,1734
9.1893,1774
9.1979,1822
9.1989,1863
9.2120,1900
9.2262,1936
9.2271,1951
9.2516,1973
9.2526,1986
9.2536,1985
9.2932,1982
9.2942,1964
9.2942,1949
9.2960,1929
9.2966,1901
9.2986,1882
9.2986,1858
9.3156,1840
9.3166,1823
9.3306,1798
9.3306,1783
9.3397,1762
9.3707,1743
9.3718,1731
9.3718,1714
9.3985,1713
9.3985,1702
9.4135,1691
9.4147,1688
9.4152,1683
9.4173,1690
9.4183,1692
9.4343,1692
9.4403,1704
9.4490,1704
9.4499,1707
9.4595,1712
9.4924,1713
9.4934,1724
9.4934,1721
9.4944,1724
9.4954,1732
9.5121,1737
9.5121,1757
9.5171,1774
9.5312,1812
9.5483,1882
9.5493,1959
9.5503,2060
9.5632,2171
9.5652,2293
9.5824,2426
9.5834,2537
9.6046,2650
9.6056,2748
9.6072,2827
9.6192,2885
9.6202,2905
9.6285,2908
9.6422,2886
9.6467,2829
9.6476,2757
9.6592,2662
9.6731,2556
9.6821,2443
9.6831,2313
9.7007,2198
9.7017,2080
9.7268,1967
9.7278,1868
9.7357,1766
9.7367,1694
9.7367,1628
9.7538,1570
9.7584,1535
9.7584,1500
9.7725,1488
9.7785,1480
9.7872,1472
9.8035,1487
9.8035,1502
9.8045,1528
9.8347,1560
9.8357,1585
9.8357,1631
9.8465,1674
9.8484,1719
9.8607,1765
9.8880,1806
9.8890,1854
9.8890,1894
9.9038,1925
9.9048,1958
9.9048,1978
9.9128,1996
9.9221,2003
9.9306,1997
9.9316,1998
9.9637,1979
9.9640,1962
9.9763,1938
9.9847,1911
9.9857,1894
9.9944,1865
9.9954,1838
10.0044,1816
10.0083,1787
10.0083,1768
10.0261,1738
10.0271,1714
10.0409,1701
10.0420,1684
10.0420,1679
10.0757,1674
10.0767,1670
10.0787,1678
10.0787,1673
10.0947,1678
10.0961,1685
10.1118,1690
10.1131,1706
10.1367,1705
10.1377,1714
10.1377,1729
10.1497,1732
10.1497,1740
10.1639,1738
10.1699,1743
10.2012,1751
10.2022,1756
10.2027,1785
10.2037,1825
10.2047,1890
10.2221,1980
10.2231,2070
10.2231,2190
10.2371,2312
10.2512,2430
10.2572,2547
10.2572,2646
10.2708,2739
10.2794,2804
10.3053,2834
10.3063,2854
10.3073,2841
10.3233,2807
10.3243,2752
10.3253,2671
10.3263,2584
10.3427,2482
10.3497,2373
10.3629,2261
10.3629,2144
10.3684,2041
10.3804,1937
10.3949,1841
10.4032,1763
10.4041,1686
10.4347,1626
10.4367,1574
10.4377,1531
10.4387,1512
10.4522,1489
10.4532,1481
10.4603,1478
10.4745,1484
10.4745,1510
10.4895,1531
10.4905,1563
10.4984,1606
10.5248,1644
10.5248,1695
10.5257,1736
10.5397,1777
10.5407,1827
10.5407,1862
10.5649,1902
10.5659,1934
10.5669,1965
10.5798,1994
10.5798,1999
10.5934,2004
10.5997,2005
10.6135,1998
10.6135,1988
10.6145,1959
10.6266,1934
10.6357,1914
10.6635,1885
10.6635,1863
10.6644,1830
10.6911,1810
10.6921,1794
10.6997,1764
10.7007,1748
10.7007,1733
10.7172,1716
10.7283,1709
10.7342,1689
10.7362,1685
10.7412,1685
10.7542,1682
10.7831,1689
10.7831,1689
10.7841,1704
10.7920,1711
10.7930,1709
10.8020,1717
10.8020,1715
10.8109,1720
10.8210,1725
10.8300,1725
10.8300,1737
10.8383,1744
10.8533,1763
10.8592,1792
10.8602,1826
10.8748,1891
10.8748,1965
10.9006,2058
10.9016,2172
10.9026,2288
10.9086,2417
10.9218,2540
10.9334,2656
10.9344,2772
10.9509,2854
10.9509,2916
10.9571,2951
10.9709,2956
10.9719,2943
10.9884,2892
10.9884,2821
11.0136,2736
11.0146,2628
11.0146,2520
11.0259,2395
11.0269,2274
11.0408,2161
11.0408,2040
11.0418,1932
11.0591,1833
11.0686,1749
11.0822,1684
11.0832,1615
11.0963,1570
11.0973,1535
11.1134,1509
11.1134,1500
11.1146,1487
11.1446,1491
11.1459,1509
11.1747,1525
11.1751,1551
11.1758,1578
11.1758,1619
11.1770,1666
11.1770,1704
11.2031,1755
11.2041,1803
11.2041,1853
11.2184,1896
11.2266,1924
11.2532,1956
11.2532,1978
11.2542,1988
11.2707,2000
11.2707,1997
11.2721,1997
11.2802,1986
11.2896,1966
11.3028,1949
11.3038,1920
11.3038,1901
11.3206,1877
11.3266,1842
11.3276,1821
11.3408,1792
11.3529,1766
11.3786,1745
11.3796,1718
11.3856,1709
11.3856,1696
11.3866,1685
11.4030,1682
11.4040,1674
11.4090,1678
11.4235,1680
11.4295,1682
11.4295,1700
11.4521,1709
11.4541,1725
11.4671,1734
11.4970,1739
11.4980,1754
11.4980,1758
11.5070,1762
11.5080,1764
11.5169,1762
11.5179,1771
11.5259,1766
11.5319,1764
11.5409,1766
11.5469,1758
11.5479,1757
11.5605,1749
11.5660,1747
11.5799,1749
11.5799,1733
11.6082,1726
11.6092,1724
11.6177,1733
11.6187,1761
11.6292,1794
11.6302,1864
11.6382,1962
11.6564,2074
11.6574,2208
11.6584,2341
11.6780,2489
11.6790,2632
11.6881,2753
11.6881,2867
11.7022,2952
11.7082,3016
11.7358,3054
11.7368,3044
11.7446,3020
11.7446,2966
11.7505,2883
11.7646,2784
11.7646,2660
11.7799,2541
11.7879,2414
11.8193,2279
11.8203,2158
11.8212,2033
11.8223,1926
11.8233,1831
11.8610,1738
11.8610,1672
11.8620,1608
11.8630,1559
11.8640,1524
11.8657,1494
11.8849,1489
11.8859,1485
11.8869,1486
11.8998,1508
11.9008,1530
11.9121,1567
11.9209,1603
11.9361,1642
11.9370,1696
11.9619,1740
11.9629,1790
11.9639,1836
11.9908,1875
11.9918,1922
11.9928,1950
11.9938,1975
11.9938,1995
12.0097,2005
12.0097,2016
12.0235,2009
12.0295,1999
12.0431,1988
12.0441,1960
12.0441,1935
12.0587,1905
12.0871,1876
12.0887,1850
12.0887,1812
12.0919,1784
12.1004,1754
12.1104,1728
12.1114,1712
12.1239,1684
12.1260,1672
12.1393,1665
12.1524,1651
12.1604,1649
12.1614,1641
12.1753,1648
12.1773,1656
12.1773,1651
12.2056,1659
12.2056,1665
12.2170,1672
12.2180,1683
12.2290,1681
12.2300,1693
12.2383,1699
12.2521,1706
12.2531,1718
12.2531,1721
12.2694,1731
12.2833,1739
12.2894,1738
12.2894,1744
12.3211,1743
12.3221,1751
12.3311,1754
12.3321,1748
12.3321,1753
12.3423,1748
12.3661,1745
12.3706,1742
12.3706,1732
12.3796,1734
12.3856,1727
12.3981,1720
12.4123,1722
12.4123,1717
12.4133,1727
12.4459,1729
12.4469,1730
12.4707,1744
12.4719,1746
12.4719,1754
12.4728,1760
12.4737,1762
12.4758,1773
12.4895,1772
12.4895,1773
12.4977,1772
12.5121,1771
12.5121,1789
12.5185,1805
12.5316,1848
12.5590,1922
12.5600,2012
12.5610,2131
12.5620,2258
12.5685,2399
12.5804,2550
12.5814,2678
12.5894,2808
12.5997,2921
12.6136,3014
12.6136,3084
12.6146,3110
12.6279,3117
12.6369,3098
12.6504,3038
12.6514,2960
12.6881,2849
12.6892,2731
12.6901,2600
12.6921,2448
12.7095,2310
12.7095,2170
12.7106,2042
12.7348,1928
12.7358,1818
12.7368,1734
12.7378,1662
12.7476,1600
12.7625,1553
12.7625,1515
12.7670,1498
12.7970,1492
12.7980,1491
12.7990,1506
12.7990,1520
12.8090,1547
12.8185,1576
12.8325,1606
12.8325,1652
12.8458,1691
12.8508,1733
12.8609,1779
12.8694,1818
12.8694,1867
12.8958,1901
12.8967,1929
12.9219,1960
12.9229,1978
12.9229,2000
12.9259,2008
12.9391,2006
12.9401,2008
12.9481,1992
12.9488,1976
12.9620,1952
12.9682,1921
12.9692,1900
12.9893,1864
12.9893,1829
12.9977,1799
13.0286,1767
13.0286,1745
13.0299,1711
13.0415,1687
13.0435,1676
13.0435,1660
13.0445,1653
13.0585,1641
13.0868,1636
13.0877,1640
13.0887,1632
13.1022,1632
13.1032,1633
13.1098,1635
13.1178,1641
13.1445,1635
13.1455,1645
13.1465,1657
13.1535,1660
13.1535,1671
13.1545,1672
13.1687,1682
13.1820,1694
13.1880,1690
13.2142,1697
13.2152,1702
13.2152,1712
13.2459,1723
13.2459,1726
13.2722,1739
13.2722,1744
13.2732,1747
13.2782,1750
13.2782,1748
13.2795,1757
13.2807,1754
13.3059,1746
13.3064,1745
13.3064,1735
13.3075,1730
13.3192,1723
13.3282,1714
13.3282,1722
13.3372,1718
13.3502,1721
13.3592,1722
13.3842,1717
13.3852,1728
13.3852,1734
13.3957,1745
13.3967,1771
13.3967,1805
13.4132,1870
13.4194,1946
13.4333,2043
13.4333,2164
13.4533,2280
13.4533,2407
13.4543,2531
13.4674,2648
13.4770,2763
13.5013,2846
13.5023,2910
13.5033,2949
13.5083,2957
13.5093,2950
13.5203,2903
13.5293,2834
13.5435,2747
13.5435,2632
13.5465,2509
13.5596,2371
13.5676,2237
13.5819,2114
13.5819,1986
13.5879,1874
13.6180,1770
13.6190,1677
13.6190,1603
13.6320,1530
13.6320,1483
13.6380,1450
13.6540,1425
13.6551,1416
13.6681,1410
13.6732,1423
13.6822,1443
13.6959,1461
13.6959,1494
13.7019,1524
13.7344,1563
13.7365,1608
13.7375,1644
13.7634,1695
13.7634,1742
13.7644,1786
13.7654,1831
13.7654,1864
13.7820,1905
13.7830,1933
13.7922,1950
13.7981,1972
13.7991,1980
13.8123,1983
13.8183,1978
13.8319,1958
13.8329,1945
13.8570,1919
13.8580,1889
13.8590,1857
13.8600,1820
13.8809,1796
13.8809,1758
13.8894,1727
13.9141,1707
13.9151,1683
13.9172,1672
13.9220,1656
13.9458,1641
13.9458,1640
13.9478,1629
13.9478,1625
13.9750,1620
13.9844,1617
13.9844,1630
13.9864,1632
13.9874,1639
14.0031,1647
14.0041,1651
14.0041,1662
14.0176,1656
14.0306,1659
14.0442,1669
14.0452,1668
14.0462,1681
14.0594,1683
14.0674,1686
14.0949,1696
14.0949,1695
14.0959,1701
14.1064,1706
14.1084,1712
14.1084,1720
14.1281,1715
14.1281,1721
14.1423,1733
14.1483,1737
14.1483,1744
14.1613,1742
14.1699,1747
14.1796,1752
14.2104,1741
14.2113,1741
14.2120,1739
14.2120,1744
14.2184,1754
14.2184,1757
14.2385,1785
14.2385,1823
14.2517,1882
14.2527,1961
14.2537,2048
14.2670,2158
14.2794,2264
14.2933,2368
14.2933,2478
14.2942,2574
14.3316,2661
14.3326,2724
14.3458,2760
14.3458,2785
14.3468,2774
14.3478,2743
14.3820,2688
14.3830,2610
14.3840,2525
14.3850,2416
14.3850,2300
14.4134,2184
14.4134,2061
14.4144,1955
14.4197,1844
14.4444,1747
14.4444,1668
14.4454,1590
14.4553,1533
14.4798,1483
14.4798,1444
14.4808,1428
14.4869,1407
14.4869,1406
14.5257,1414
14.5267,1426
14.5267,1451
14.5277,1471
14.5287,1499
14.5407,1536
14.5407,1566
14.5694,1606
14.5700,1636
14.5712,1669
14.5792,1711
14.5802,1743
14.5935,1783
14.5945,1821
14.6097,1856
14.6233,1895
14.6243,1913
14.6243,1939
14.6396,1958
14.6509,1962
14.6589,1961
14.6608,1942
14.6857,1928
14.6867,1904
14.6867,1867
14.6944,1841
14.6944,1812
14.7079,1790
14.7190,1765
14.7200,1733
14.7352,1714
14.7362,1693
14.7474,1678
14.7602,1671
14.7612,1660
14.7682,1663
14.7944,1662
14.7957,1657
14.7968,1661
14.8091,1657
14.8101,1664
14.8181,1665
14.8422,1663
14.8422,1675
14.8422,1676
14.8483,1681
14.8614,1685
14.8633,1682
14.8803,1691
14.8813,1695
14.8873,1698
14.9155,1708
14.9165,1708
14.9165,1720
14.9364,1721
14.9374,1722
14.9394,1732
14.9532,1733
14.9532,1737
14.9542,1735
14.9701,1732
14.9713,1741
15.0021,1742
15.0031,1755
15.0031,1778
15.0280,1813
15.0291,1872
15.0291,1936
15.0482,2023
15.0492,2126
15.0502,2230
15.0502,2341
15.0602,2437
15.0685,2537
15.0797,2631
15.0797,2691
15.0877,2742
15.1021,2766
15.1080,2767
15.1171,2749
15.1307,2694
15.1307,2628
15.1554,2543
15.1564,2436
15.1574,2327
15.1656,2200
15.1666,2083
15.1809,1972
15.1859,1859
15.2144,1761
15.2144,1671
15.2234,1601
15.2314,1544
15.2368,1491
15.2426,1464
15.2426,1446
15.2731,1437
15.2740,1434
15.2740,1429
15.2750,1442
15.2750,1457
15.2929,1472
15.2939,1499
15.2979,1526
15.3119,1565
15.3171,1599
15.3294,1630
15.3294,1672
15.3391,1708
15.3531,1749
15.3591,1788
15.3601,1824
15.3877,1871
15.3887,1903
15.3990,1928
15.4005,1950
15.4011,1957
15.4131,1965
15.4271,1954
15.4281,1938
15.4281,1924
15.4402,1901
15.4492,1880
15.4634,1852
15.4769,1821
15.4769,1799
15.5101,1768
15.5111,1745
15.5111,1728
15.5191,1714
15.5201,1711
15.5335,1695
15.5335,1687
15.5391,1683
15.5391,1677
15.5491,1677
15.5582,1665
15.5712,1666
15.5801,1671
15.5811,1664
15.5940,1669
15.5950,1672
15.6418,1682
15.6428,1697
15.6588,1695
15.6598,1707
15.6608,1715
15.6618,1715
15.6618,1720
15.6628,1715
15.6794,1725
15.6804,1740
15.6804,1751
15.6954,1784
15.6954,1826
15.7114,1893
15.7184,1979
15.7184,2068
15.7503,2184
15.7513,2296
15.7513,2403
15.7619,2509
15.7701,2592
15.7701,2675
15.8014,2727
15.8034,2754
15.8044,2763
15.8044,2741
15.8056,2702
15.8177,2638
15.8320,2547
15.8330,2453
15.8574,2340
15.8595,2227
15.8732,2110
15.8732,1991
15.8824,1889
15.8834,1786
15.9065,1697
15.9130,1623
15.9130,1556
15.9220,1513
15.9306,1472
15.9368,1444
15.9622,1431
15.9866,1421
15.9876,1426
15.9876,1432
15.9886,1448
15.9906,1481
15.9916,1509
15.9916,1546
16.0069,1586
16.0079,1625
16.0219,1670
16.0229,1704
16.0292,1745
16.0431,1790
16.0431,1824
16.0441,1863
16.0602,1886
16.0661,1913
16.0931,1942
16.0931,1952
16.0942,1964
16.1081,1964
16.1091,1958
16.1226,1953
16.1236,1932
16.1246,1918
16.1420,1899
16.1465,1872
16.1475,1850
16.1606,1818
16.1690,1795
16.1820,1776
16.1830,1745
16.2135,1724
16.2146,1699
16.2156,1689
16.2269,1681
16.2269,1667
16.2414,1670
16.2424,1668
16.2424,1670
16.2606,1675
16.2666,1671
16.2666,1679
16.2983,1685
16.2993,1687
16.3003,1698
16.3003,1708
16.3111,1736
16.3369,1774
16.3379,1820
16.3379,1899
16.3469,1985
16.3479,2091
16.3669,2202
16.3805,2313
16.3815,2431
16.3874,2530
16.4014,2616
16.4105,2693
16.4105,2740
16.4164,2777
16.4294,2779
16.4583,2753
16.4594,2713
16.4594,2643
16.4624,2561
16.4644,2460
16.4654,2346
16.4804,2239
16.4814,2113
16.4855,1997
16.4981,1887
16.5113,1785
16.5123,1704
16.5183,1620
16.5320,1556
16.5380,1508
16.5380,1462
16.5469,1436
16.5716,1410
16.5726,1404
16.5777,1408
16.5787,1414
16.5930,1434
16.5982,1455
16.6117,1490
16.6127,1533
16.6136,1566
16.6287,1616
16.6377,1662
16.6467,1709
16.6467,1760
16.6602,1801
16.6692,1849
16.6967,1890
16.6981,1917
16.6981,1946
16.7158,1960
16.7158,1978
16.7219,1982
16.7219,1970
16.7351,1965
16.7361,1948
16.7482,1930
16.7619,1911
16.7619,1879
16.7679,1860
16.7818,1834
16.7882,1801
16.7882,1782
16.8177,1755
16.8187,1737
16.8207,1715
16.8307,1690
16.8317,1683
16.8391,1667
16.8531,1657
16.8588,1647
16.8598,1637
16.8658,1643
16.8793,1645
16.8879,1652
16.9015,1676
16.9025,1704
16.9339,1757
16.9359,1818
16.9562,1901
16.9574,2009
16.9580,2119
16.9585,2240
16.9715,2352
16.9765,2457
16.9775,2561
16.9902,2638
16.9912,2704
16.9965,2746
17.0079,2764
17.0218,2762
17.0218,2724
17.0503,2669
17.0523,2597
17.0533,2501
17.0533,2401
17.0543,2280
17.0814,2164
17.0834,2052
17.0834,1936
17.0844,1835
17.0989,1737
17.1089,1655
17.1099,1589
17.1190,1523
17.1328,1479
17.1348,1448
17.1612,1427
17.1625,1421
17.1625,1414
17.1658,1426
17.1916,1445
17.1925,1466
17.1935,1502
17.1945,1532
17.2105,1579
17.2164,1626
17.2300,1667
17.2310,1724
17.2370,1772
17.2505,1825
17.2566,1875
17.2566,1909
17.2812,1951
17.2825,1975
17.2865,1989
17.3006,2002
17.3006,1998
17.3068,1998
17.3214,1985
17.3274,1962
17.3284,1949
17.3420,1924
17.3480,1905
17.3608,1879
17.3669,1847
17.3669,1826
17.3932,1795
17.3942,1769
17.4068,1748
17.4088,1721
17.4088,1706
17.4218,1683
17.4299,1668
17.4309,1667
17.4544,1662
17.4544,1666
17.4554,1667
17.4696,1674
17.4756,1700
17.4887,1724
17.4897,1777
17.4955,1852
17.5187,1945
17.5207,2061
17.5217,2179
17.5305,2309
17.5409,2440
17.5409,2556
17.5741,2666
17.5751,2745
17.5761,2811
17.5781,2859
17.5781,2870
17.5876,2859
17.6026,2813
17.6081,2750
17.6081,2668
17.6366,2557
17.6366,2447
17.6416,2328
17.6480,2210
17.6490,2097
17.6617,1972
17.6678,1870
17.6817,1773
17.6828,1676
17.6963,1605
17.6973,1541
17.7138,1498
17.7159,1466
17.7289,1429
17.7555,1421
17.7555,1418
17.7567,1430
17.7678,1456
17.7688,1481
17.7698,1530
17.7830,1574
17.7903,1620
17.7903,1677
17.7963,1730
17.8100,1789
17.8170,1842
17.8291,1888
17.8301,1939
17.8430,1969
17.8491,1999
17.8792,2016
17.8802,2024
17.8812,2035
17.8812,2025
17.8917,2010
17.9006,1992
17.9006,1963
17.9107,1942
17.9238,1906
17.9323,1874
17.9333,1849
17.9478,1813
17.9478,1787
17.9659,1758
17.9956,1736
17.9966,1725
17.9966,1702
17.9976,1688
17.9980,1676
18.0093,1665
18.0093,1668
18.0225,1659
18.0295,1662
18.0418,1674
18.0418,1691
18.0508,1737
18.0565,1792
18.0675,1876
18.0858,1987
18.0868,2098
18.0878,2231
18.1088,2364
18.1098,2501
18.1108,2639
18.1161,2746
18.1305,2844
18.1446,2919
18.1456,2964
18.1466,2981
18.1622,2961
18.1693,2921
18.1820,2858
18.1837,2764
18.2137,2660
18.2147,2535
18.2157,2410
18.2383,2285
18.2383,2152
18.2403,2038
18.2403,1929
18.2514,1830
18.2607,1747
18.2667,1665
18.2667,1612
18.2767,1562
18.2900,1520
18.2951,1500
18.2951,1484
18.3092,1489
18.3182,1495
18.3468,1507
18.3478,1541
18.3478,1575
18.3767,1621
18.3777,1671
18.3787,1718
18.3787,1778
18.3797,1827
18.3944,1880
18.4004,1930
18.4014,1966
18.4094,2004
18.4224,2023
18.4294,2038
18.4294,2050
18.4598,2047
18.4608,2043
18.4617,2023
18.4679,2001
18.4769,1982
18.4848,1948
18.4858,1920
18.4991,1886
18.5081,1850
18.5205,1827
18.5205,1793
18.5293,1770
18.5427,1755
18.5436,1733
18.5447,1724
18.5779,1702
18.5789,1694
18.5928,1690
18.5938,1677
18.5938,1676
18.6003,1671
18.6255,1673
18.6255,1692
18.6449,1709
18.6459,1763
18.6479,1838
18.6603,1936
18.6603,2062
18.6739,2191
18.6758,2344
18.7004,2503
18.7014,2651
18.7174,2798
18.7184,2916
18.7194,3023
18.7204,3095
18.7254,3126
18.7393,3137
18.7393,3110
18.7453,3050
18.7577,2970
18.7717,2862
18.7717,2755
18.7778,2631
18.7915,2502
18.7925,2380
18.7925,2252
18.8192,2136
18.8202,2022
18.8454,1917
18.8454,1839
18.8474,1766
18.8629,1712
18.8641,1667
18.8655,1627
18.8655,1610
18.8829,1590
18.8894,1579
18.9025,1584
18.9079,1594
18.9140,1624
18.9423,1649
18.9443,1682
18.9443,1729
18.9453,1769
18.9575,1817
18.9594,1860
18.9704,1904
18.9792,1952
18.9858,1977
18.9868,2000
19.0054,2013
19.0064,2021
19.0174,2031
19.0194,2018
19.0275,2002
19.0524,1989
19.0534,1962
19.0544,1941
19.0699,1903
19.0710,1874
19.0761,1849
19.0770,1816
19.0901,1793
19.1005,1769
19.1115,1753
19.1129,1744
19.1129,1719
19.1271,1709
19.1401,1702
19.1691,1698
19.1691,1700
19.1701,1689
19.1811,1691
19.1831,1690
19.1831,1681
19.2104,1681
19.2110,1673
19.2201,1676
19.2291,1682
19.2353,1679
19.2484,1691
19.2494,1694
19.2625,1698
19.2634,1708
19.2968,1713
19.2968,1739
19.2977,1771
19.2988,1818
19.2997,1892
19.3007,1986
19.3192,2112
19.3202,2254
19.3292,2409
19.3292,2588
19.3379,2754
19.3504,2916
19.3644,3061
19.3654,3176
19.3654,3271
19.3799,3321
19.3864,3333
19.4130,3318
19.4130,3260
19.4140,3182
19.4191,3068
19.4291,2936
19.4291,2798
19.4517,2643
19.4517,2493
19.4577,2342
19.4963,2202
19.4973,2085
19.4993,1969
19.4993,1875
19.5003,1795
19.5334,1727
19.5334,1681
19.5343,1632
19.5353,1600
19.5363,1584
19.5489,1567
19.5489,1565
19.5579,1562
19.5710,1575
19.5730,1600
19.5730,1621
19.5900,1653
19.5990,1688
19.6124,1733
19.6134,1783
19.6144,1818
19.6437,1864
19.6454,1904
19.6691,1939
19.6701,1968
19.6701,1979
19.6716,1995
19.6980,2001
19.6990,1994
19.6990,1986
19.7000,1964
19.7124,1945
19.7194,1919
19.7194,1881
19.7275,1854
19.7542,1817
19.7554,1785
19.7724,1752
19.7741,1713
19.7741,1693
19.7751,1665
19.7886,1641
19.7948,1629
19.7948,1611
19.8087,1610
19.8177,1604
19.8314,1595
19.8324,1603
19.8411,1603
19.8501,1609
19.8587,1610
19.8597,1610
19.8846,1621
19.8861,1619
19.8912,1623
19.8962,1635
19.8972,1644
19.9103,1667
19.9193,1680
19.9330,1693
19.9330,1706
19.9350,1710
19.9481,1718
19.9678,1716
19.9698,1714
19.9698,1722
20.0000,1717
20.0010,1721
20.0020,1721
20.0100,1732
20.0203,1763
20.0203,1797
20.0326,1863
20.0393,1956
20.0665,2068
20.0685,2204
20.0685,2343
20.0695,2505
20.0800,2672
20.0810,2818
20.0885,2956
20.1144,3060
20.1154,3142
20.1154,3193
20.1416,3190
20.1426,3168
20.1489,3106
20.1499,3012
20.1509,2897
20.1616,2751
20.1705,2609
20.1790,2463
20.1800,2306
20.1850,2164
20.1987,2018
20.2128,1896
20.2352,1789
20.2379,1691
20.2389,1624
20.2389,1568
20.2486,1524
20.2629,1497
20.2636,1471
20.2636,1468
20.2802,1465
20.2888,1470
20.2948,1487
20.2958,1505
20.3128,1540
20.3266,1574
20.3567,1610
20.3567,1660
20.3578,1702
20.3604,1747
20.3689,1786
20.3829,1816
20.3829,1854
20.3839,1876
20.3903,1895
20.3993,1910
20.3993,1917
20.4097,1930
20.4197,1925
20.4367,1920
20.4377,1916
20.4387,1900
20.4639,1880
20.4649,1851
20.4829,1819
20.4829,1796
20.4849,1760
20.4859,1730
20.4965,1698
20.5095,1674
20.5170,1659
20.5180,1630
20.5311,1609
20.5380,1596
20.5466,1582
20.5466,1579
20.5605,1565
20.5665,1563
20.5912,1570
20.5922,1565
20.5922,1572
20.5992,1573
20.6131,1582
20.6131,1592
20.6141,1587
20.6315,1596
20.6375,1604
20.6475,1610
20.6485,1621
20.6578,1620
20.6752,1634
20.6762,1648
20.7032,1650
20.7032,1660
20.7042,1663
20.7214,1679
20.7224,1689
20.7362,1687
20.7616,1696
20.7626,1695
20.7626,1697
20.7636,1699
20.7816,1694
20.7826,1702
20.7836,1700
20.7919,1698
20.8209,1699
20.8219,1696
20.8219,1702
20.8386,1699
20.8404,1694
20.8404,1699
20.8415,1693
20.8581,1695
20.8761,1693
20.8771,1686
20.8791,1696
20.8791,1702
20.8904,1729
20.9251,1782
20.9261,1857
20.9261,1965
20.9490,2076
20.9503,2206
20.9513,2352
20.9523,2494
20.9533,2643
20.9701,2772
20.9711,2886
20.9803,2986
20.9852,3040
20.9852,3071
20.9973,3065
21.0110,3033
21.0120,2981
21.0165,2883
21.0305,2767
21.0385,2636
21.0395,2488
21.0683,2347
21.0693,2194
21.0740,2055
21.0750,1928
21.0750,1806
21.0915,1708
21.0998,1621
21.1137,1554
21.1227,1505
21.1227,1458
21.1360,1434
21.1450,1420
21.1499,1419
21.1509,1428
21.1783,1436
21.1799,1462
21.1864,1497
21.1874,1530
21.1999,1574
21.2009,1612
21.2093,1665
21.2226,1715
21.2226,1757
21.2326,1807
21.2326,1848
21.2467,1885
21.2600,1917
21.2600,1931
21.2661,1952
21.2990,1956
21.3003,1950
21.3013,1940
21.3013,1916
21.3102,1895
21.3162,1868
21.3342,1833
21.3352,1807
21.3362,1771
21.3487,1742
21.3617,1712
21.3617,1681
21.3673,1663
21.3817,1638
21.3877,1618
21.4145,1607
21.4145,1595
21.4155,1598
21.4447,1590
21.4460,1588
21.4490,1594
21.4500,1596
21.4500,1604
21.4590,1604
21.4673,1606
21.4802,1617
21.5041,1616
21.5041,1622
21.5091,1626
21.5411,1630
21.5421,1642
21.5431,1640
21.5441,1643
21.5453,1652
21.5464,1657
21.5464,1669
21.5584,1673
21.5674,1683
21.5816,1700
21.5816,1705
21.5878,1715
21.6052,1716
21.6052,1723
21.6203,1730
21.6203,1722
21.6263,1722
21.6556,1719
21.6566,1719
21.6566,1721
21.6646,1711
21.6666,1714
21.6903,1716
21.6914,1712
21.6964,1713
21.6964,1705
21.7102,1710
21.7162,1711
21.7302,1700
21.7312,1699
21.7361,1690
21.7840,1687
21.7860,1692
21.7916,1702
21.7916,1741
21.7925,1794
21.7940,1871
21.8041,1979
21.8041,2096
21.8273,2235
21.8284,2371
21.8416,2500
21.8416,2636
21.8425,2749
21.8502,2850
21.8649,2926
21.8659,2970
21.8669,2995
21.8927,2975
21.8940,2929
21.9010,2859
21.9020,2759
21.9102,2656
21.9240,2524
21.9251,2387
21.9413,2255
21.9413,2120
21.9461,2000
21.9602,1885
21.9711,1782
21.9721,1702
22.0112,1623
22.0122,1561
22.0122,1507
22.0172,1467
22.0202,1448
22.0202,1424
22.0564,1419
22.0574,1429
22.0584,1442
22.0594,1473
22.0604,1496
22.0740,1534
22.1025,1584
22.1035,1624
22.1045,1677
22.1278,1723
22.1278,1776
22.1288,1830
22.1288,1865
22.1358,1907
22.1378,1936
22.1491,1955
22.1491,1969
22.1621,1960
22.1692,1958
22.2115,1949
22.2126,1928
22.2140,1913
22.2140,1886
22.2150,1867
22.2160,1840
22.2450,1804
22.2450,1781
22.2464,1751
22.2541,1724
22.2541,1701
22.2712,1669
22.2712,1657
22.2778,1638
22.2889,1618
22.2889,1608
22.2959,1594
22.3204,1594
22.3214,1590
22.3280,1580
22.3280,1587
22.3562,1587
22.3572,1597
22.3711,1600
22.3721,1604
22.3731,1621
22.3738,1626
22.3918,1638
22.3968,1650
22.3968,1657
22.4098,1675
22.4279,1675
22.4289,1677
22.4380,1690
22.4512,1696
22.4522,1708
22.4582,1708
22.4828,1709
22.4828,1716
22.4878,1711
22.4878,1713
22.5009,1714
22.5029,1717
22.5164,1724
22.5169,1717
22.5301,1716
22.5371,1719
22.5462,1714
22.5602,1715
22.5612,1707
22.5663,1707
22.5966,1710
22.5966,1703
22.5976,1706
22.6100,1706
22.6114,1719
22.6127,1743
22.6127,1773
22.6290,1838
22.6378,1924
22.6509,2030
22.6519,2151
22.6550,2270
22.6663,2405
22.6917,2537
22.6917,2651
22.7175,2756
22.7186,2835
22.7196,2898
22.7364,2927
22.7374,2917
22.7434,2888
22.7444,2829
22.7577,2749
22.7668,2647
22.7708,2522
22.7718,2403
22.7798,2269
22.8035,2139
22.8045,2015
22.8105,1894
22.8105,1799
22.8371,1706
22.8391,1621
22.8391,1555
22.8401,1494
22.8548,1456
22.8568,1428
22.8568,1407
22.8665,1412
22.8805,1411
22.8865,1423
22.9002,1443
22.9013,1461
22.9064,1498
22.9312,1526
22.9322,1566
22.9561,1614
22.9573,1659
22.9580,1714
22.9590,1761
22.9805,1814
22.9815,1871
22.9825,1908
22.9825,1946
22.9989,1970
23.0075,1989
23.0233,2008
23.0244,2004
23.0254,2000
23.0390,1989
23.0390,1965
23.0715,1943
23.0724,1903
23.0724,1872
23.0854,1843
23.0864,1805
23.0864,1775
23.0989,1739
23.1146,1714
23.1161,1693
23.1172,1663
23.1322,1647
23.1342,1626
23.1502,1610
23.1512,1602
23.1614,1588
23.1868,1590
23.1878,1594
23.1878,1597
23.1888,1610
23.2040,1613
23.2178,1630
23.2261,1643
23.2271,1649
23.2387,1664
23.2387,1669
23.2477,1678
23.2608,1684
23.2618,1685
23.2732,1698
23.2802,1700
23.3058,1703
23.3068,1710
23.3068,1707
23.3387,1715
23.3401,1716
23.3516,1721
23.3516,1735
23.3526,1739
23.3536,1747
23.3616,1744
23.3616,1741
23.3696,1746
23.3840,1739
23.3850,1736
23.4028,1732
23.4028,1728
23.4259,1738
23.4279,1744
23.4339,1774
23.4349,1827
23.4447,1899
23.4447,2004
23.4810,2110
23.4820,2231
23.4840,2363
23.4850,2475
23.4850,2591
23.4990,2686
23.5085,2763
23.5456,2825
23.5466,2843
23.5475,2845
23.5485,2823
23.5495,2772
23.5594,2708
23.5604,2609
23.5684,2507
23.5784,2396
23.5794,2267
23.5925,2148
23.5935,2026
23.6176,1917
23.6186,1818
23.6186,1713
23.6300,1631
23.6548,1556
23.6739,1496
23.6739,1453
23.6739,1407
23.6766,1388
23.6776,1377
23.6776,1370
23.6976,1382
23.6976,1392
23.7112,1422
23.7171,1454
23.7181,1484
23.7381,1530
23.7391,1572
23.7491,1622
23.7742,1670
23.7751,1712
23.7751,1772
23.7841,1821
23.7852,1868
23.7992,1913
23.8123,1942
23.8133,1973
23.8133,1985
23.8303,1988
23.8303,1992
23.8393,1979
23.8513,1972
23.8633,1950
23.8643,1923
23.8724,1907
23.9002,1878
23.9013,1850
23.9053,1821
23.9053,1788
23.9288,1768
23.9288,1737
23.9299,1708
23.9299,1690
23.9759,1667
23.9769,1655
23.9769,1636
23.9790,1622
23.9790,1624
23.9859,1618
23.9869,1623
24.0108,1627
24.0128,1633
24.0208,1648
24.0218,1649
24.0218,1654
24.0382,1663
24.0451,1670
24.0621,1684
24.0631,1682
24.0641,1688
24.0800,1698
24.0810,1698
24.0891,1703
24.1028,1704
24.1088,1711
24.1088,1723
24.1348,1728
24.1463,1755
24.1473,1796
24.1503,1859
24.1503,1949
24.1602,2050
24.1677,2179
24.1812,2316
24.1822,2449
24.1982,2579
24.1992,2688
24.2078,2789
24.2211,2860
24.2211,2899
24.2503,2921
24.2503,2909
24.2513,2871
24.2582,2805
24.2685,2709
24.2685,2610
24.2769,2487
24.2909,2358
24.2977,2231
24.3112,2100
24.3112,1987
24.3203,1871
24.3289,1766
24.3289,1682
24.3573,1604
24.3826,1548
24.3836,1495
24.3836,1455
24.3866,1438
24.3876,1419
24.3888,1414
24.4038,1416
24.4038,1422
24.4048,1444
24.4224,1460
24.4284,1486
24.4294,1520
24.4374,1555
24.4517,1602
24.4578,1638
24.4837,1680
24.4837,1726
24.4959,1763
24.4959,1808
24.4969,1846
24.5137,1884
24.5137,1924
24.5147,1940
24.5283,1957
24.5384,1967
24.5394,1968
24.5551,1965
24.5551,1945
24.5691,1928
24.5792,1908
24.5792,1875
24.6221,1847
24.6231,1813
24.6472,1789
24.6482,1768
24.6492,1738
24.6502,1722
24.6512,1703
24.6522,1684
24.6522,1670
24.6673,1650
24.6683,1647
24.6825,1644
24.6835,1640
24.6845,1643
24.6935,1640
24.7238,1653
24.7248,1660
24.7258,1663
24.7613,1676
24.7623,1679
24.7623,1689
24.7633,1694
24.7643,1694
24.7653,1706
24.7824,1707
24.7834,1710
24.7964,1715
24.8102,1715
24.8102,1729
24.8163,1734
24.8408,1742
24.8418,1769
24.8425,1800
24.8525,1860
24.8535,1939
24.8702,2034
24.8702,2157
24.8762,2279
24.8897,2410
24.8957,2541
24.8967,2658
24.9077,2772
24.9216,2852
24.9277,2913
24.9377,2955
24.9634,2962
24.9644,2948
24.9644,2896
24.9664,2822
24.9788,2736
24.9788,2618
24.9868,2495
25.0028,2358
25.0038,2219
25.0211,2090
25.0221,1957
25.0277,1843
25.0408,1741
25.0417,1649
25.0800,1578
25.0810,1510
25.0810,1464
25.0820,1432
25.0830,1409
25.0888,1404
25.0983,1401
25.1103,1413
25.1103,1434
25.1153,1452
25.1284,1488
25.1356,1521
25.1488,1562
25.1495,1605
25.1626,1638
25.1686,1687
25.1992,1734
25.1992,1779
25.2012,1825
25.2017,1860
25.2101,1904
25.2176,1940
25.2533,1959
25.2548,1982
25.2548,1987
25.2558,1991
25.2568,1985
25.2733,1966
25.2733,1954
25.2743,1929
25.2925,1901
25.2925,1875
25.3199,1839
25.3199,1815
25.3256,1786
25.3276,1756
25.3276,1739
25.3540,1718
25.3600,1705
25.3610,1691
25.3725,1678
25.3725,1679
25.3785,1668
25.3920,1668
25.4064,1666
25.4064,1663
25.4074,1670
25.4332,1666
25.4352,1663
25.4352,1669
25.4462,1671
25.4462,1683
25.4584,1680
25.4674,1684
25.4764,1697
25.4899,1696
25.4899,1700
25.4958,1700
25.5101,1698
25.5157,1705
25.5167,1701
25.5502,1712
25.5512,1736
25.5608,1771
25.5618,1833
25.5628,1910
25.5638,2020
25.5811,2149
25.5820,2280
25.5860,2424
25.6001,2555
25.6137,2687
25.6147,2805
25.6157,2887
25.6313,2956
25.6373,2991
25.6619,2997
25.6629,2977
25.6629,2915
25.6710,2841
25.6850,2742
25.6860,2620
25.6900,2490
25.6986,2346
25.7122,2212
25.7261,2077
25.7351,1946
25.7438,1833
25.7438,1728
25.7524,1647
25.7614,1577
25.7869,1514
25.7879,1478
25.7879,1448
25.7913,1426
25.7961,1419
25.8100,1414
25.8100,1430
25.8165,1447
25.8296,1470
25.8309,1506
25.8382,1539
25.8500,1582
25.8624,1623
25.8624,1664
25.9085,1720
25.9095,1762
25.9278,1808
25.9304,1851
25.9304,1886
25.9314,1927
25.9324,1948
25.9334,1968
25.9344,1992
25.9525,1997
25.9525,2004
25.9535,1993
25.9677,1978
25.9687,1963
25.9874,1931
25.9874,1901
25.9964,1864
26.0362,1829
26.0372,1803
26.0382,1764
26.0551,1738
26.0561,1716
26.0575,1693
26.0575,1681
26.0581,1661
26.0701,1651
26.0786,1651
26.0786,1643
26.0925,1648
26.0935,1647
26.1112,1657
26.1122,1670
26.1122,1671
26.1412,1685
26.1423,1692
26.1433,1700
26.1443,1712
26.1612,1709
26.1702,1719
26.1783,1723
26.1953,1717
26.1953,1719
26.2087,1710
26.2170,1718
26.2230,1725
26.2379,1730
26.2381,1763
26.2633,1801
26.2644,1873
26.2726,1966
26.2736,2070
26.2736,2207
26.2746,2344
26.2887,2483
26.2990,2620
26.3224,2741
26.3224,2858
26.3234,2934
26.3244,2984
26.3254,3012
26.3428,3001
26.3488,2963
26.3785,2886
26.3785,2784
26.3794,2672
26.3874,2538
26.3904,2404
26.4002,2264
26.4002,2125
26.4137,2001
26.4150,1878
26.4312,1771
26.4324,1682
26.4454,1602
26.4464,1543
26.4634,1488
26.4644,1453
26.4906,1438
26.4916,1423
26.4926,1424
26.5059,1429
26.5340,1445
26.5340,1472
26.5350,1492
26.5350,1528
26.5363,1570
26.5363,1614
26.5481,1667
26.5570,1709
26.5705,1760
26.5765,1814
26.5765,1862
26.5874,1911
26.6134,1945
26.6147,1974
26.6159,1999
26.6159,2006
26.6261,2010
26.6401,2001
26.6462,1988
26.6462,1974
26.6602,1942
26.6712,1919
26.6762,1893
26.6910,1862
26.6920,1839
26.6920,1807
26.7096,1788
26.7353,1765
26.7363,1733
26.7413,1712
26.7413,1687
26.7423,1674
26.7587,1664
26.7671,1652
26.7681,1652
26.7811,1650
26.7875,1647
26.7875,1648
26.8061,1647
26.8070,1662
26.8200,1669
26.8260,1675
26.8260,1686
26.8536,1690
26.8546,1698
26.8556,1700
26.8684,1699
26.8693,1711
26.8773,1713
26.8910,1722
26.9000,1730
26.9010,1743
26.9096,1781
26.9240,1825
26.9325,1896
26.9325,1996
26.9463,2111
26.9728,2251
26.9738,2384
26.9748,2521
26.9758,2653
26.9886,2761
26.9886,2859
27.0021,2931
27.0195,2973
27.0205,2992
27.0215,2965
27.0275,2917
27.0411,2842
27.0411,2741
27.0600,2634
27.0600,2501
27.0869,2369
27.0889,2238
27.0889,2098
27.0899,1980
27.1033,1861
27.1044,1762
27.1054,1677
27.1185,1593
27.1275,1534
27.1409,1483
27.1419,1451
27.1429,1433
27.1737,1413
27.1747,1418
27.1762,1425
27.2047,1439
27.2047,1465
27.2047,1491
27.2147,1538
27.2157,1581
27.2257,1620
27.2394,1672
27.2404,1715
27.2464,1771
27.2600,1820
27.2600,1859
27.2724,1909
27.2812,1943
27.2902,1973
27.3235,1995
27.3245,2003
27.3245,2011
27.3538,2001
27.3538,1986
27.3548,1974
27.3548,1952
27.3562,1933
27.3572,1904
27.3572,1874
27.3737,1854
27.3798,1821
27.3888,1791
27.3987,1760
27.3987,1734
27.4069,1720
27.4324,1697
27.4339,1682
27.4522,1674
27.4532,1661
27.4532,1658
27.4548,1647
27.4686,1647
27.4696,1655
27.4867,1653
27.4867,1661
27.4996,1667
27.5052,1674
27.5174,1690
27.5174,1690
27.5309,1699
27.5359,1705
27.5359,1707
27.5598,1720
27.5612,1723
27.5656,1748
27.5798,1794
27.5808,1850
27.5888,1943
27.5988,2046
27.6115,2178
27.6129,2324
27.6129,2463
27.6271,2609
27.6412,2735
27.6502,2848
27.6502,2941
27.6769,2987
27.6779,3014
27.6799,3005
27.6959,2961
27.6969,2890
27.6979,2786
27.7112,2676
27.7171,2547
27.7182,2401
27.7402,2265
27.7402,2127
27.7481,2004
27.7551,1887
27.7681,1779
27.7691,1695
27.7930,1614
27.7950,1548
27.8206,1498
27.8749,1454
27.8759,1437
27.8759,1416
27.8773,1408
27.8773,1416
27.8783,1428
27.8793,1455
27.8813,1483
27.8823,1514
27.8823,1561
27.8833,1603
27.9113,1649
27.9124,1695
27.9124,1738
27.9245,1788
27.9255,1825
27.9275,1864
27.9420,1901
27.9430,1926
27.9440,1950
27.9639,1961
27.9649,1971
27.9649,1979
27.9784,1966
27.9844,1954
27.9976,1935
28.0224,1911
28.0234,1895
28.0401,1858
28.0410,1828
28.0421,1799
28.0421,1770
28.0567,1750
28.0577,1722
28.0657,1704
28.0799,1688
28.0881,1665
28.0881,1658
28.1027,1641
28.1088,1637
28.1088,1637
28.1219,1631
28.1229,1639
28.1508,1646
28.1518,1659
28.1528,1669
28.1661,1668
28.1898,1680
28.1908,1694
28.1918,1712
28.1928,1744
28.2012,1784
28.2097,1856
28.2157,1947
28.2167,2050
28.2472,2179
28.2482,2306
28.2708,2444
28.2743,2571
28.2752,2677
28.2762,2774
28.2812,2843
28.2950,2881
28.2950,2895
28.3086,2869
28.3086,2831
28.3172,2755
28.3315,2658
28.3315,2553
28.3375,2430
28.3495,2310
28.3585,2183
28.3585,2054
28.3845,1947
28.3865,1836
28.3975,1743
28.3985,1656
28.3995,1574
28.4121,1519
28.4131,1464
28.4424,1429
28.4436,1410
28.4436,1398
28.4587,1405
28.4597,1408
28.4686,1427
28.4771,1462
28.5081,1490
28.5091,1534
28.5091,1577
28.5111,1626
28.5161,1685
28.5161,1731
28.5299,1789
28.5359,1841
28.5479,1885
28.5489,1929
28.5571,1955
28.5708,1986
28.6039,2009
28.6049,2017
28.6049,2022
28.6287,2006
28.6287,1992
28.6287,1972
28.6287,1939
28.6305,1915
28.6399,1884
28.6649,1854
28.6649,1825
28.6659,1784
28.6669,1759
28.6810,1735
28.6900,1710
28.6900,1694
28.6958,1669
28.7086,1659
28.7172,1650
28.7436,1636
28.7445,1639
28.7445,1638
28.7487,1649
28.7611,1662
28.7691,1678
28.7701,1725
28.7781,1787
28.7871,1869
28.7961,1974
28.8123,2084
28.8123,2222
28.8133,2354
28.8274,2481
28.8274,2606
28.8569,2706
28.8579,2794
28.8649,2845
28.8649,2862
28.8659,2861
28.8784,2818
28.8867,2756
28.9011,2669
28.9021,2566
28.9098,2463
28.9261,2337
28.9401,2215
28.9401,2098
28.9448,1983
28.9492,1887
28.9788,1787
28.9798,1702
28.9798,1635
28.9809,1568
28.9829,1518
28.9973,1473
29.0098,1441
29.0098,1429
29.0181,1415
29.0271,1421
29.0413,1438
29.0413,1462
29.0630,1500
29.0640,1532
29.0650,1580
29.1031,1638
29.1041,1692
29.1041,1755
29.1304,1805
29.1304,1860
29.1344,1912
29.1354,1945
29.1354,1981
29.1374,1999
29.1518,2016
29.1518,2027
29.1528,2018
29.1707,2016
29.1842,1999
29.2189,1976
29.2189,1948
29.2199,1908
29.2209,1873
29.2323,1836
29.2409,1793
29.2409,1762
29.2419,1731
29.2469,1711
29.2599,1690
29.2599,1667
29.2679,1658
29.2823,1648
29.2886,1640
29.2886,1639
29.3082,1633
29.3092,1647
29.3319,1659
29.3339,1685
29.3419,1741
29.3419,1815
29.3484,1922
29.3624,2040
29.3624,2174
29.3634,2322
29.3811,2463
29.3871,2604
29.4012,2730
29.4022,2833
29.4072,2921
29.4192,2968
29.4464,2987
29.4464,2983
29.4474,2942
29.4638,2882
29.4648,2789
29.4657,2680
29.4657,2569
29.4897,2437
29.4897,2310
29.4958,2179
29.5095,2054
29.5105,1945
29.5155,1832
29.5294,1742
29.5354,1664
29.5619,1600
29.5629,1554
29.5629,1509
29.5760,1486
29.5818,1476
29.5828,1470
29.6061,1481
29.6074,1492
29.6074,1519
29.6074,1559
29.6160,1600
29.6261,1654
29.6398,1709
29.6536,1769
29.6536,1830
29.6545,1870
29.6837,1918
29.6847,1955
29.6847,1981
29.6899,2007
29.6960,2015
29.7343,2026
29.7352,2026
29.7362,2011
29.7372,1996
29.7372,1970
29.7473,1946
29.7607,1917
29.7617,1877
29.7760,1852
29.7770,1816
29.8042,1786
29.8042,1758
29.8144,1726
29.8144,1714
29.8154,1691
29.8318,1671
29.8328,1661
29.8659,1649
29.8669,1647
29.8905,1642
29.8915,1643
29.8925,1662
29.8925,1681
29.8935,1722
29.8945,1777
29.8945,1857
29.9231,1972
29.9240,2101
29.9290,2256
29.9306,2426
29.9306,2595
29.9482,2767
29.9569,2907
29.9673,3031
29.9684,3128
29.9857,3181
29.9867,3203
29.9997,3181
30.0047,3131
30.0325,3056
30.0325,2943
30.0334,2818
30.0435,2679
30.0444,2529
30.0586,2385
30.0586,2234
30.0646,2101
30.0773,1984
30.0903,1868
30.0913,1774
30.0973,1683
30.1091,1617
30.1152,1566
30.1162,1516
30.1296,1483
30.1563,1459
30.1573,1450
30.1573,1460
30.1621,1463
30.1632,1488
30.1770,1519
30.1885,1553
30.2123,1601
30.2132,1643
30.2132,1700
30.2143,1757
30.2275,1801
30.2275,1853
30.2355,1889
30.2498,1928
30.2759,1963
30.2769,1979
30.2769,1997
30.2785,1999
30.2866,1993
30.3010,1983
30.3020,1958
30.3030,1937
30.3187,1902
30.3274,1863
30.3404,1834
30.3414,1795
30.3736,1764
30.3746,1729
30.4031,1690
30.4041,1671
30.4041,1643
30.4061,1628
30.4072,1612
30.4072,1595
30.4081,1595
30.4253,1584
30.4273,1584
30.4273,1592
30.4491,1596
30.4501,1608
30.4560,1609
30.4696,1622
30.4706,1646
30.4874,1667
30.4874,1711
30.5148,1769
30.5160,1859
30.5170,1985
30.5180,2125
30.5310,2291
30.5370,2467
30.5370,2652
30.5598,2836
30.5598,2989
30.5653,3125
30.5785,3232
30.5865,3293
30.5875,3323
30.6014,3307
30.6273,3260
30.6283,3182
30.6283,3063
30.6397,2926
30.6407,2767
30.6497,2602
30.6497,2442
30.6626,2272
30.6760,2128
30.7073,1992
30.7083,1872
30.7083,1773
30.7124,1677
30.7204,1613
30.7482,1555
30.7482,1502
30.7496,1468
30.7496,1438
30.7565,1426
30.7585,1419
30.7716,1412
30.7727,1426
30.7735,1443
30.7908,1472
30.7908,1512
30.8060,1550
30.8060,1607
30.8195,1655
30.8273,1698
30.8273,1748
30.8530,1786
30.8550,1826
30.8719,1852
30.8729,1870
30.8729,1894
30.8749,1893
30.8895,1893
30.8985,1880
30.8985,1862
30.9082,1852
30.9170,1825
30.9311,1801
30.9311,1778
30.9322,1751
30.9499,1731
30.9549,1699
30.9827,1675
30.9837,1658
30.9847,1633
31.0134,1617
31.0148,1598
31.0158,1586
31.0158,1584
31.0168,1571
31.0300,1566
31.0372,1564
31.0454,1560
31.0594,1565
31.0604,1555
31.0661,1557
31.0785,1563
31.0785,1560
31.1035,1569
31.1046,1565
31.1060,1574
31.1227,1583
31.1237,1580
31.1247,1588
31.1507,1590
31.1517,1607
31.1527,1636
31.1653,1669
31.1673,1732
31.1804,1806
31.1815,1896
31.1825,2007
31.2184,2124
31.2194,2261
31.2204,2394
31.2224,2514
31.2433,2631
31.2433,2722
31.2443,2801
31.2586,2850
31.2586,2863
31.2673,2859
31.2794,2823
31.2884,2758
31.2884,2673
31.3068,2564
31.3078,2458
31.3362,2334
31.3455,2210
31.3515,2095
31.3525,1980
31.3525,1886
31.3607,1797
31.3668,1717
31.3668,1662
31.3909,1602
31.3919,1557
31.3930,1518
31.3939,1485
31.4106,1472
31.4166,1454
31.4308,1452
31.4583,1458
31.4593,1463
31.4593,1484
31.4603,1496
31.4709,1523
31.4775,1557
31.4775,1586
31.4897,1623
31.4982,1652
31.5072,1683
31.5136,1720
31.5136,1739
31.5306,1762
31.5368,1779
31.5368,1796
31.5522,1814
31.5522,1814
31.5747,1816
31.5757,1814
31.5905,1802
31.5905,1790
31.5965,1762
31.6108,1744
31.6119,1726
31.6119,1697
31.6260,1677
31.6559,1654
31.6569,1639
31.6569,1629
31.6579,1608
31.6839,1602
31.6860,1597
31.6860,1591
31.6993,1589
31.7003,1580
31.7073,1583
31.7193,1584
31.7193,1577
31.7263,1582
31.7393,1581
31.7439,1590
31.7643,1598
31.7653,1598
31.7663,1613
31.7797,1619
31.7887,1625
31.8145,1627
31.8234,1625
31.8234,1640
31.8371,1642
31.8382,1643
31.8396,1650
31.8396,1651
31.8505,1659
31.8679,1660
31.8699,1659
31.8699,1667
31.8759,1665
31.8895,1673
31.8960,1680
31.8960,1698
31.9259,1738
31.9271,1782
31.9343,1842
31.9363,1918
31.9363,1993
31.9496,2077
31.9557,2146
31.9697,2213
31.9707,2284
31.9872,2332
31.9872,2373
31.9958,2392
32.0098,2399
32.0098,2399
32.0185,2368
32.0471,2333
32.0482,2283
32.0491,2220
32.0572,2157
32.0572,2073
32.0702,2000
32.0794,1927
32.0855,1855
32.0855,1801
32.0995,1742
32.1085,1701
32.1146,1666
32.1146,1629
32.1394,1603
32.1404,1578
32.1721,1564
32.1731,1556
32.1731,1545
32.1741,1552
32.1924,1563
32.1934,1576
32.1934,1598
32.2107,1611
32.2158,1639
32.2301,1668
32.2301,1690
32.2381,1719
32.2391,1740
32.2465,1766
32.2606,1788
32.2859,1796
32.2869,1814
32.3163,1822
32.3173,1825
32.3183,1828
32.3209,1819
32.3216,1822
32.3236,1809
32.3346,1795
32.3356,1788
32.3434,1767
32.3484,1755
32.3582,1736
32.3582,1719
32.3723,1712
32.3735,1695
32.4044,1686
32.4059,1673
32.4059,1663
32.4069,1663
32.4409,1651
32.4419,1642
32.4429,1639
32.4429,1634
32.4446,1645
32.4598,1650
32.4658,1658
32.4756,1673
32.4896,1674
32.4896,1678
32.4907,1674
32.5191,1674
32.5201,1687
32.5201,1685
32.5271,1695
32.5511,1704
32.5511,1708
32.5531,1720
32.5531,1716
32.5693,1720
32.5753,1724
32.5892,1718
32.5892,1722
32.5952,1715
32.6121,1718
32.6392,1720
32.6402,1713
32.6402,1712
32.6422,1708
32.6688,1714
32.6698,1723
32.6698,1720
32.6708,1727
32.6805,1732
32.6815,1738
32.6897,1756
32.6965,1771
32.7108,1811
32.7144,1860
32.7154,1905
32.7304,1963
32.7304,2007
32.7591,2058
32.7601,2100
32.7621,2130
32.7621,2166
32.7768,2189
32.7912,2206
32.7912,2214
32.8078,2204
32.8088,2196
32.8153,2166
32.8292,2125
32.8302,2084
32.8362,2034
32.8489,1991
32.8761,1942
32.8771,1886
32.8771,1846
32.8791,1799
32.8881,1764
32.8971,1731
32.8971,1696
32.9215,1680
32.9235,1657
32.9379,1644
32.9389,1641
32.9389,1634
32.9482,1642
32.9572,1639
32.9934,1643
32.9934,1656
32.9944,1663
32.9954,1682
32.9964,1696
33.0228,1717
33.0238,1745
33.0284,1760
33.0294,1781
33.0394,1798
33.0394,1810
33.0543,1824
33.0553,1825
33.0680,1835
33.0784,1844
33.1096,1846
33.1100,1850
33.1156,1838
33.1166,1830
33.1176,1822
33.1186,1801
33.1364,1786
33.1384,1767
33.1495,1755
33.1505,1749
33.1585,1728
33.1721,1722
33.1784,1713
33.1784,1701
33.1847,1693
33.1983,1675
33.2261,1673
33.2271,1669
33.2311,1661
33.2421,1665
33.2424,1663
33.2435,1676
33.2555,1683
33.2555,1684
33.2680,1696
33.2820,1699
33.2830,1706
33.2973,1711
33.3033,1714
33.3033,1726
33.3175,1732
33.3479,1732
33.3494,1738
33.3609,1732
33.3619,1738
33.3619,1735
33.3619,1734
33.3679,1744
33.3768,1742
33.3908,1749
33.3996,1749
33.3996,1752
33.4085,1767
33.4220,1768
33.4284,1773
33.4284,1779
33.4369,1779
33.4634,1783
33.4644,1777
33.4757,1772
33.4757,1773
33.4877,1766
33.4887,1768
33.4967,1773
33.5102,1792
33.5167,1828
33.5177,1858
33.5309,1902
33.5399,1948
33.5399,1992
33.5770,2042
33.5770,2070
33.5780,2102
33.6043,2129
33.6063,2142
33.6063,2155
33.6075,2145
33.6096,2140
33.6228,2128
33.6238,2101
33.6238,2078
33.6409,2044
33.6419,2011
33.6419,1972
33.6656,1918
33.6666,1880
33.6992,1842
33.7002,1807
33.7012,1777
33.7269,1743
33.7283,1725
33.7321,1709
33.7333,1689
33.7343,1681
33.7353,1669
33.7523,1672
33.7653,1673
33.7663,1668
33.7763,1680
33.7833,1686
33.7916,1699
33.7916,1712
33.8194,1722
33.8194,1749
33.8264,1766
33.8274,1783
33.8389,1805
33.8389,1818
33.8483,1840
33.8623,1848
33.8623,1852
33.8633,1863
33.8820,1861
33.8831,1865
33.8971,1862
33.8981,1855
33.9108,1855
33.9392,1842
33.9408,1833
33.9433,1828
33.9433,1815
33.9440,1808
33.9624,1790
33.9634,1778
33.9855,1777
33.9865,1764
33.9875,1762
33.9959,1752
34.0055,1746
34.0055,1748
34.0191,1735
34.0291,1732
34.0619,1727
34.0629,1725
34.0639,1732
34.0649,1726
34.0659,1732
34.0786,1742
34.0786,1740
34.0889,1740
34.0951,1741
34.1095,1745
34.1106,1751
34.1106,1746
34.1273,1748
34.1406,1742
34.1458,1746
34.1466,1753
34.1739,1749
34.1759,1758
34.1769,1763
34.2135,1764
34.2135,1766
34.2145,1758
34.2155,1764
34.2213,1766
34.2303,1762
34.2363,1774
34.2373,1783
34.2503,1808
34.2570,1841
34.2879,1874
34.2889,1927
34.2889,1975
34.3011,2021
34.3011,2065
34.3031,2097
34.3031,2139
34.3202,2163
34.3222,2180
34.3372,2191
34.3372,2190
34.3496,2188
34.3626,2170
34.3636,2141
34.3646,2117
34.3779,2075
34.3869,2034
34.4123,1987
34.4123,1942
34.4133,1909
34.4229,1866
34.4239,1829
34.4407,1798
34.4407,1766
34.4417,1745
34.4661,1719
34.4671,1701
34.4751,1694
34.4896,1682
34.4896,1677
34.4906,1664
34.5058,1658
34.5058,1669
34.5307,1667
34.5319,1680
34.5389,1693
34.5409,1708
34.5565,1736
34.5575,1749
34.5700,1777
34.5760,1807
34.5903,1828
34.5903,1857
34.5995,1869
34.6049,1892
34.6195,1909
34.6195,1911
34.6457,1913
34.6469,1906
34.6559,1899
34.6559,1890
34.6620,1867
34.6857,1861
34.6867,1848
34.6877,1833
34.6877,1822
34.7009,1799
34.7039,1792
34.7197,1782
34.7197,1769
34.7394,1764
34.7394,1754
34.7404,1757
34.7679,1757
34.7689,1750
34.7689,1756
34.8116,1754
34.8126,1751
34.8137,1749
34.8157,1738
34.8157,1744
34.8167,1741
34.8455,1738
34.8465,1743
34.8465,1741
34.8714,1748
34.8726,1745
34.8736,1741
34.8916,1747
34.8932,1745
34.8932,1751
34.8951,1753
34.8961,1762
34.9076,1790
34.9217,1819
34.9307,1864
34.9307,1922
34.9370,1978
34.9494,2041
34.9578,2090
34.9718,2138
34.9718,2188
35.0007,2219
35.0017,2254
35.0228,2267
35.0238,2274
35.0238,2277
35.0248,2255
35.0258,2235
35.0385,2200
35.0385,2164
35.0557,2127
35.0557,2072
35.0695,2025
35.0756,1979
35.0766,1928
35.0889,1885
35.0961,1834
35.1181,1798
35.1194,1767
35.1194,1732
35.1265,1712
35.1407,1692
35.1457,1681
35.1457,1678
35.1628,1664
35.1637,1668
35.1782,1670
35.1841,1672
35.1851,1683
35.1982,1687
35.2122,1710
35.2132,1732
35.2393,1752
35.2407,1780
35.2407,1800
35.2417,1829
35.2689,1852
35.2699,1864
35.2779,1885
35.2789,1893
35.2877,1900
35.3019,1905
35.3107,1898
35.3107,1905
35.3243,1898
35.3304,1891
35.3554,1886
35.3564,1875
35.3564,1872
35.3645,1858
35.3655,1839
35.3665,1830
35.3822,1811
35.3832,1796
35.3972,1780
35.3972,1767
35.4069,1767
35.4207,1753
35.4348,1743
35.4358,1738
35.4368,1732
35.4486,1735
35.4767,1727
35.5059,1730
35.5068,1736
35.5078,1735
35.5078,1740
35.5089,1739
35.5109,1744
35.5193,1757
35.5193,1759
35.5315,1766
35.5404,1768
35.5469,1766
35.5566,1769
35.5566,1762
35.5879,1773
35.5889,1794
35.5899,1823
35.5909,1870
35.5993,1916
35.6157,1981
35.6167,2049
35.6257,2108
35.6257,2173
35.6388,2230
35.6457,2287
35.6457,2336
35.6587,2365
35.6678,2394
35.6822,2409
35.6832,2408
35.6842,2394
35.7110,2356
35.7120,2321
35.7170,2275
35.7225,2215
35.7364,2164
35.7374,2102
35.7506,2050
35.7516,1994
35.7655,1929
35.7655,1883
35.7797,1836
35.7857,1798
35.7995,1763
35.8005,1730
35.8276,1713
35.8296,1693
35.8356,1678
35.8366,1673
35.8366,1668
35.8540,1674
35.8590,1677
35.8600,1683
35.8770,1705
35.8770,1721
35.8889,1748
35.9045,1771
35.9045,1792
35.9126,1827
35.9220,1846
35.9471,1868
35.9481,1891
35.9481,1904
35.9531,1923
35.9621,1921
35.9735,1921
35.9735,1923
35.9881,1916
35.9881,1915
35.9941,1900
36.0072,1890
36.0072,1885
36.0321,1868
36.0331,1859
36.0351,1847
36.0361,1833
36.0654,1827
36.0664,1803
36.0757,1789
36.0768,1777
36.0768,1764
36.0882,1757
36.1016,1744
36.1382,1746
36.1382,1751
36.1407,1750
36.1407,1755
36.1419,1756
36.1514,1762
36.1524,1770
36.1810,1766
36.1820,1771
36.1921,1772
36.1931,1771
36.1931,1774
36.1991,1768
36.2121,1774
36.2256,1773
36.2392,1772
36.2402,1787
36.2402,1808
36.2527,1855
36.2806,1909
36.2816,1960
36.2816,2034
36.3115,2104
36.3125,2181
36.3144,2256
36.3156,2320
36.3156,2389
36.3167,2439
36.3342,2475
36.3352,2504
36.3352,2509
36.3495,2510
36.3575,2487
36.3585,2443
36.3776,2398
36.3786,2331
36.3889,2263
36.3953,2187
36.3963,2106
36.4191,2041
36.4206,1960
36.4290,1892
36.4433,1834
36.4433,1783
36.4442,1747
36.4610,1707
36.4660,1678
36.4660,1658
36.4853,1638
36.4863,1634
36.5089,1628
36.5378,1633
36.5387,1651
36.5387,1658
36.5407,1677
36.5417,1701
36.5427,1729
36.5567,1764
36.5567,1787
36.5627,1816
36.5769,1844
36.5899,1862
36.5909,1885
36.5969,1891
36.6082,1905
36.6082,1915
36.6253,1916
36.6253,1922
36.6557,1918
36.6567,1917
36.6567,1913
36.6577,1897
36.6731,1889
36.6782,1876
36.6782,1860
36.6839,1849
36.6979,1825
36.7176,1811
36.7196,1798
36.7232,1778
36.7339,1768
36.7349,1753
36.7600,1742
36.7619,1733
36.7619,1715
36.7862,1716
36.7872,1711
36.7982,1709
36.7992,1710
36.8052,1704
36.8052,1716
36.8218,1716
36.8228,1718
36.8228,1726
36.8438,1729
36.8456,1741
36.8618,1744
36.8663,1742
36.8935,1748
36.8935,1746
36.8945,1748
36.8956,1753
36.8956,1760
36.9108,1789
36.9218,1819
36.9231,1866
36.9393,1926
36.9393,1997
36.9479,2087
36.9569,2172
36.9841,2264
36.9851,2357
36.9861,2435
36.9861,2510
37.0108,2565
37.0119,2611
37.0119,2650
37.0218,2657
37.0224,2654
37.0367,2629
37.0367,2582
37.0590,2530
37.0600,2449
37.0643,2368
37.0783,2279
37.0783,2183
37.0863,2093
37.0963,2000
37.1232,1920
37.1232,1849
37.1318,1774
37.1330,1719
37.1340,1671
37.1490,1638
37.1500,1618
37.1582,1591
37.1718,1583
37.1893,1578
37.1893,1580
37.1903,1591
37.1949,1598
37.2093,1625
37.2149,1652
37.2403,1678
37.2419,1714
37.2419,1744
37.2519,1785
37.2531,1822
37.2531,1850
37.2694,1883
37.2777,1904
37.2917,1924
37.2927,1937
37.2978,1939
37.3120,1948
37.3200,1947
37.3294,1939
37.3294,1935
37.3670,1923
37.3680,1919
37.3690,1901
37.3690,1877
37.3807,1863
37.3807,1839
37.3867,1819
37.4181,1793
37.4191,1768
37.4201,1756
37.4201,1739
37.4307,1728
37.4307,1724
37.4393,1717
37.4451,1720
37.4541,1709
37.4818,1703
37.4834,1707
37.4844,1700
37.4844,1705
37.4976,1701
37.5046,1707
37.5179,1720
37.5179,1722
37.5268,1730
37.5633,1734
37.5641,1739
37.5651,1750
37.5661,1743
37.5671,1746
37.5929,1753
37.5939,1757
37.5949,1770
37.6128,1783
37.6263,1820
37.6273,1875
37.6313,1939
37.6313,2024
37.6373,2112
37.6493,2213
37.6493,2314
37.6573,2398
37.6713,2491
37.6773,2573
37.6783,2642
37.6863,2699
37.7205,2722
37.7216,2737
37.7226,2725
37.7236,2685
37.7386,2631
37.7396,2553
37.7437,2469
37.7557,2373
37.7557,2262
37.7694,2168
37.7754,2068
37.7894,1979
37.7904,1891
37.8070,1807
37.8070,1746
37.8335,1688
37.8345,1641
37.8375,1607
37.8385,1575
37.8558,1562
37.8568,1553
37.8744,1549
37.8744,1567
37.8754,1580
37.8876,1607
37.8967,1633
37.8967,1662
37.9097,1707
37.9170,1738
37.9307,1778
37.9316,1815
37.9629,1854
37.9639,1897
37.9649,1926
37.9659,1951
37.9760,1977
37.9850,1986
37.9860,1994
37.9978,1992
38.0038,1986
38.0181,1985
38.0190,1964
38.0267,1948
38.0528,1928
38.0538,1909
38.0789,1896
38.0789,1866
38.0800,1848
38.0870,1829
38.0879,1803
38.0890,1784
38.1133,1756
38.1142,1741
38.1142,1732
38.1303,1716
38.1313,1711
38.1323,1702
38.1493,1702
38.1503,1708
38.1580,1703
38.1829,1708
38.1839,1716
38.1839,1720
38.2009,1731
38.2009,1731
38.2080,1744
38.2202,1749
38.2212,1746
38.2221,1746
38.2376,1743
38.2436,1750
38.2677,1757
38.2677,1759
38.2728,1783
38.2976,1810
38.2996,1860
38.2996,1930
38.3006,2007
38.3216,2110
38.3226,2213
38.3236,2319
38.3246,2433
38.3392,2539
38.3452,2648
38.3582,2729
38.3712,2787
38.3732,2832
38.3732,2843
38.3842,2832
38.4022,2795
38.4022,2736
38.4032,2672
38.4304,2579
38.4314,2476
38.4324,2368
38.4334,2251
38.4494,2145
38.4553,2033
38.4693,1934
38.4788,1846
38.4798,1764
38.4798,1700
38.4968,1640
38.5058,1594
38.5178,1571
38.5178,1546
38.5430,1539
38.5442,1538
38.5452,1548
38.5572,1574
38.5582,1593
38.5661,1628
38.5805,1666
38.5808,1705
38.5873,1746
38.6003,1782
38.6089,1824
38.6099,1868
38.6293,1897
38.6293,1930
38.6353,1952
38.6618,1978
38.6618,1994
38.6628,1997
38.6638,2003
38.6955,2000
38.6967,1994
38.6967,1985
38.6980,1961
38.7116,1946
38.7126,1923
38.7136,1893
38.7338,1870
38.7348,1841
38.7478,1823
38.7543,1804
38.7543,1775
38.7817,1764
38.7831,1743
38.8062,1730
38.8072,1718
38.8072,1700
38.8082,1700
38.8406,1694
38.8416,1690
38.8426,1692
38.8436,1688
38.8514,1696
38.8604,1698
38.8604,1700
38.8747,1714
38.8757,1721
38.9005,1731
38.9015,1737
38.9015,1739
38.9065,1758
38.9193,1771
38.9315,1804
38.9325,1854
38.9335,1922
38.9463,2017
38.9565,2116
38.9703,2234
38.9703,2368
38.9713,2492
38.9853,2620
39.0206,2728
39.0233,2826
39.0233,2907
39.0243,2950
39.0253,2973
39.0378,2969
39.0455,2935
39.0585,2881
39.0595,2793
39.0655,2695
39.0778,2587
39.0788,2462
39.0888,2339
39.0957,2204
39.1094,2081
39.1369,1975
39.1379,1870
39.1379,1787
39.1469,1708
39.1529,1644
39.1529,1595
39.1599,1545
39.1842,1522
39.1926,1509
39.1936,1503
39.1976,1511
39.2076,1513
39.2241,1538
39.2518,1568
39.2518,1604
39.2529,1649
39.2611,1691
39.2631,1740
39.2641,1787
39.2641,1822
39.2651,1867
39.2827,1902
39.2837,1937
39.3003,1970
39.3013,1988
39.3013,2012
39.3357,2020
39.3367,2016
39.3367,2011
39.3377,1989
39.3467,1974
39.3732,1946
39.3732,1914
39.3813,1893
39.3813,1862
39.3863,1837
39.3988,1804
39.3998,1772
39.4078,1754
39.4220,1730
39.4270,1715
39.4285,1707
39.4426,1699
39.4436,1696
39.4581,1687
39.4661,1683
39.4904,1690
39.4904,1682
39.4914,1683
39.4924,1680
39.5070,1685
39.5070,1698
39.5160,1695
39.5305,1700
39.5366,1702
39.5366,1703
39.5555,1713
39.5555,1709
39.5691,1716
39.5741,1733
39.6004,1761
39.6004,1816
39.6099,1880
39.6245,1974
39.6245,2090
39.6300,2218
39.6300,2366
39.6391,2518
39.6486,2669
39.6486,2811
39.6631,2925
39.6641,3026
39.6780,3097
39.6780,3132
39.6840,3142
39.6981,3102
39.7257,3047
39.7267,2959
39.7280,2845
39.7285,2721
39.7365,2576
39.7454,2436
39.7536,2294
39.7546,2147
39.7717,2022
39.7738,1902
39.7880,1800
39.7880,1716
39.8067,1643
39.8067,1596
39.8147,1556
39.8410,1526
39.8420,1515
39.8429,1507
39.8511,1519
39.8531,1529
39.8654,1540
39.8794,1571
39.8794,1599
39.8849,1638
39.8992,1678
39.9002,1715
39.9077,1769
39.9217,1805
39.9276,1846
39.9286,1885
39.9362,1918
39.9725,1951
39.9735,1967
39.9930,1982
39.9930,1997
39.9940,1996
39.9940,1995
40.0030,1981
40.0115,1971
40.0115,1964
40.0181,1943
40.0417,1921
40.0417,1896
40.0427,1865
40.0560,1840
40.0570,1802
40.0837,1770
40.0847,1744
40.0886,1716
40.0896,1703
40.1201,1681
40.1211,1670
40.1224,1666
40.1234,1652
40.1244,1650
40.1410,1644
40.1430,1649
40.1430,1658
40.1567,1658
40.1691,1668
40.2003,1677
40.2014,1683
40.2025,1690
40.2025,1686
40.2034,1692
40.2217,1695
40.2227,1693
40.2227,1701
40.2366,1708
40.2454,1732
40.2578,1773
40.2578,1824
40.2668,1909
40.2748,2009
40.2893,2138
40.2893,2281
40.3185,2430
40.3195,2596
40.3205,2751
40.3285,2892
40.3296,3017
40.3375,3108
40.3614,3179
40.3664,3207
40.3674,3196
40.3754,3162
40.3754,3087
40.3891,2991
40.4024,2871
40.4034,2731
40.4084,2593
40.4347,2435
40.4357,2283
40.4367,2139
40.4377,2008
40.4519,1897
40.4574,1788
40.4704,1695
40.4704,1626
40.4766,1564
40.4836,1521
40.4977,1491
40.5037,1475
40.5046,1482
40.5173,1485
40.5224,1503
40.5488,1527
40.5502,1558
40.5593,1600
40.5593,1631
40.5673,1676
40.5765,1723
40.6156,1767
40.6172,1815
40.6172,1851
40.6188,1891
40.6188,1929
40.6263,1948
40.6263,1975
40.6349,1990
40.6679,1999
40.6679,2005
40.6689,1992
40.6729,1988
40.6778,1979
40.6778,1963
40.6868,1945
40.6980,1906
40.7080,1883
40.7320,1855
40.7331,1822
40.7331,1794
40.7361,1759
40.7441,1732
40.7582,1708
40.7582,1677
40.7849,1666
40.7859,1651
40.7879,1642
40.7992,1638
40.8062,1631
40.8072,1641
40.8157,1643
40.8327,1645
40.8338,1653
40.8348,1653
40.8480,1665
40.8561,1666
40.8631,1665
40.8767,1673
40.8767,1676
40.9013,1684
40.9023,1692
40.9153,1696
40.9163,1714
40.9173,1718
40.9421,1722
40.9421,1725
40.9431,1722
40.9441,1733
40.9594,1736
40.9653,1750
40.9663,1791
40.9886,1842
40.9896,1922
40.9906,2018
41.0158,2136
41.0158,2281
41.0168,2427
41.0344,2585
41.0575,2741
41.0584,2883
41.0584,3015
41.0712,3106
41.0794,3177
41.0892,3214
41.0970,3211
41.0980,3180
41.1080,3107
41.1080,3011
41.1154,2897
41.1418,2751
41.1418,2605
41.1428,2444
41.1518,2289
41.1518,2143
41.1528,1993
41.1662,1867
41.1804,1755
41.1814,1659
41.1824,1584
41.1974,1516
41.2066,1478
41.2176,1453
41.2176,1434
41.2186,1430
41.2531,1428
41.2541,1446
41.2778,1470
41.2778,1490
41.2788,1535
41.2798,1577
41.2899,1627
41.2991,1678
41.3111,1723
41.3121,1780
41.3203,1830
41.3329,1869
41.3380,1912
41.3380,1941
41.3504,1977
41.3766,1995
41.4011,2000
41.4021,2010
41.4031,2003
41.4210,1997
41.4230,1979
41.4230,1952
41.4240,1931
41.4250,1895
41.4260,1860
41.4371,1826
41.4381,1793
41.4516,1765
41.4526,1728
41.4702,1696
41.4702,1678
41.4713,1654
41.4993,1643
41.5003,1628
41.5073,1620
41.5084,1622
41.5217,1611
41.5267,1611
41.5353,1611
41.5353,1613
41.5573,1626
41.5583,1624
41.5640,1631
41.5777,1646
41.5866,1649
41.5866,1660
41.6114,1659
41.6124,1663
41.6124,1673
41.6234,1668
41.6244,1675
41.6390,1677
41.6480,1687
41.6491,1698
41.6590,1694
41.6674,1702
41.6814,1709
41.6814,1712
41.6824,1719
41.7005,1716
41.7065,1728
41.7324,1748
41.7339,1774
41.7339,1824
41.7430,1889
41.7553,1986
41.7693,2106
41.7693,2230
41.7703,2381
41.7874,2528
41.8015,2679
41.8025,2816
41.8025,2929
41.8035,3033
41.8170,3103
41.8447,3135
41.8615,3135
41.8622,3092
41.8633,3030
41.8654,2937
41.8659,2814
41.8924,2685
41.8933,2538
41.8933,2392
41.8953,2245
41.8953,2098
41.9117,1973
41.9176,1847
41.9313,1737
41.9323,1645
41.9323,1567
41.9637,1510
41.9647,1455
41.9773,1415
41.9793,1397
41.9833,1380
41.9843,1383
42.0078,1388
42.0168,1407
42.0168,1450
42.0228,1488
42.0362,1541
42.0453,1597
42.0453,1653
42.0601,1716
42.0878,1764
42.0888,1817
42.0898,1868
42.0908,1907
42.0908,1945
42.0975,1968
42.1115,1990
42.1128,2007
42.1265,2006
42.1265,2004
42.1351,1991
42.1491,1977
42.1491,1962
42.1742,1928
42.1751,1903
42.1771,1871
42.2049,1836
42.2049,1808
42.2059,1767
42.2079,1740
42.2179,1715
42.2179,1690
42.2257,1671
42.2353,1651
42.2493,1641
42.2503,1632
42.2503,1614
42.2664,1610
42.2774,1603
42.2916,1598
42.2926,1600
42.3233,1593
42.3243,1603
42.3252,1610
42.3272,1618
42.3364,1634
42.3364,1640
42.3500,1659
42.3590,1668
42.3590,1674
42.3732,1690
42.3742,1697
42.3852,1708
42.3985,1713
42.3995,1715
42.4075,1729
42.4397,1731
42.4417,1734
42.4417,1741
42.4490,1751
42.4575,1782
42.4585,1817
42.4751,1875
42.4926,1964
42.4936,2065
42.4936,2194
42.5063,2328
42.5328,2470
42.5343,2620
42.5353,2746
42.5363,2867
42.5363,2963
42.5373,3033
42.5613,3080
42.5623,3078
42.5623,3048
42.5753,2987
42.5902,2893
42.5902,2782
42.5912,2644
42.6053,2503
42.6153,2365
42.6153,2213
42.6286,2077
42.6427,1942
42.6438,1824
42.6438,1722
42.6722,1624
42.6732,1548
42.7013,1487
42.7023,1439
42.7023,1412
42.7216,1384
42.7226,1379
42.7236,1387
42.7246,1396
42.7256,1423
42.7361,1453
42.7461,1499
42.7553,1553
42.7683,1598
42.7694,1660
42.7990,1711
42.7990,1765
42.8105,1817
42.8115,1858
42.8115,1908
42.8125,1948
42.8292,1977
42.8332,2001
42.8347,2009
42.8479,2018
42.8567,2018
42.8647,2003
42.8792,1995
42.8792,1974
42.8872,1950
42.9167,1917
42.9177,1874
42.9224,1843
42.9233,1801
42.9314,1762
42.9314,1730
42.9324,1699
42.9502,1680
42.9562,1655
42.9703,1633
42.9703,1625
42.9713,1614
43.0180,1615
43.0425,1613
43.0435,1616
43.0445,1631
43.0495,1631
43.0505,1638
43.0515,1642
43.0525,1643
43.0535,1653
43.0545,1653
43.0709,1658
43.0779,1666
43.0789,1670
43.0866,1679
43.1003,1678
43.1063,1682
43.1063,1692
43.1396,1685
43.1406,1691
43.1406,1691
43.1427,1704
43.1427,1730
43.1721,1761
43.1734,1828
43.1890,1921
43.1902,2032
43.1902,2170
43.1952,2312
43.2090,2474
43.2150,2636
43.2278,2782
43.2352,2919
43.2367,3024
43.2447,3111
43.2693,3167
43.2693,3177
43.2703,3164
43.2752,3111
43.2883,3031
43.2943,2922
43.3109,2785
43.3123,2648
43.3123,2496
43.3279,2333
43.3279,2178
43.3418,2022
43.3428,1892
43.3587,1773
43.3602,1665
43.3960,1590
43.3970,1525
43.3980,1479
43.3990,1440
43.4000,1407
43.4090,1399
43.4171,1387
43.4291,1392
43.4291,1409
43.4343,1432
43.4480,1470
43.4561,1504
43.4699,1544
43.4708,1598
43.4713,1648
43.5053,1708
43.5064,1762
43.5069,1813
43.5080,1869
43.5230,1906
43.5240,1944
43.5365,1975
43.5365,1997
43.5445,2019
43.5590,2017
43.5649,2016
43.5749,2009
43.5749,1989
43.5891,1969
43.5951,1932
43.6198,1896
43.6215,1865
43.6252,1820
43.6252,1789
43.6364,1755
43.6504,1728
43.6504,1710
43.6556,1677
43.6698,1662
43.6788,1648
43.6788,1632
43.6849,1628
43.6973,1613
43.7113,1614
43.7389,1616
43.7389,1609
43.7406,1612
43.7522,1608
43.7532,1617
43.7680,1629
43.7680,1630
43.7690,1644
43.7749,1650
43.8262,1657
43.8272,1664
43.8282,1663
43.8292,1673
43.8302,1678
43.8312,1677
43.8584,1685
43.8594,1692
43.8594,1723
43.8674,1764
43.8674,1827
43.8774,1929
43.8783,2048
43.8833,2194
43.8964,2350
43.8964,2508
43.9104,2681
43.9164,2834
43.9302,2976
43.9312,3097
43.9322,3184
43.9639,3244
43.9649,3258
43.9888,3236
43.9902,3188
43.9902,3100
43.9912,2989
43.9972,2852
44.0116,2697
44.0116,2544
44.0236,2374
44.0372,2219
44.0459,2068
44.0529,1931
44.0529,1816
44.0620,1704
44.0873,1619
44.0883,1555
44.0893,1500
44.1039,1463
44.1052,1427
44.1061,1407
44.1212,1407
44.1222,1408
44.1267,1427
44.1389,1449
44.1449,1482
44.1459,1521
44.1564,1551
44.1704,1593
44.1797,1640
44.2139,1683
44.2149,1737
44.2159,1778
44.2299,1833
44.2309,1881
44.2329,1918
44.2339,1953
44.2339,1972
44.2477,1989
44.2537,1996
44.2537,1984
44.2643,1978
44.2789,1960
44.2849,1937
44.2947,1913
44.3037,1876
44.3037,1851
44.3345,1817
44.3355,1781
44.3355,1749
44.3525,1713
44.3680,1691
44.3722,1666
44.3732,1640
44.3832,1627
44.3842,1612
44.3980,1607
44.3989,1597
44.3989,1583
44.4079,1586
44.4150,1579
44.4398,1576
44.4408,1579
44.4418,1578
44.4660,1589
44.4680,1593
44.4920,1598
44.4940,1617
44.4940,1629
44.4970,1651
44.4990,1663
44.5077,1674
44.5077,1690
44.5167,1690
44.5301,1697
44.5364,1707
44.5368,1728
44.5640,1777
44.5640,1835
44.5753,1930
44.5801,2054
44.5801,2194
44.5817,2355
44.5953,2516
44.6086,2686
44.6169,2853
44.6219,2992
44.6229,3116
44.6365,3206
44.6500,3265
44.6562,3291
44.6827,3263
44.6978,3210
44.6978,3126
44.6978,3007
44.6987,2877
44.6996,2715
44.7089,2557
44.7221,2401
44.7221,2236
44.7231,2089
44.7341,1948
44.7446,1831
44.7536,1726
44.7546,1624
44.7673,1553
44.7764,1493
44.8084,1449
44.8094,1421
44.8174,1393
44.8174,1391
44.8184,1391
44.8244,1397
44.8389,1417
44.8389,1438
44.8519,1480
44.8539,1525
44.8703,1571
44.8743,1634
44.8753,1688
44.8888,1746
44.8975,1797
44.8975,1838
44.9234,1894
44.9244,1931
44.9314,1963
44.9324,1988
44.9324,2002
44.9485,2015
44.9545,2010
44.9688,1995
44.9698,1981
44.9698,1952
44.9964,1928
44.9974,1892
45.0090,1855
45.0144,1830
45.0154,1793
45.0454,1762
45.0463,1734
45.0463,1707
45.0544,1688
45.0553,1660
45.0922,1643
45.0932,1632
45.0952,1615
45.0952,1605
45.0963,1593
45.1061,1587
45.1061,1591
45.1283,1584
45.1293,1586
45.1353,1584
45.1580,1588
45.1580,1600
45.1590,1599
45.1725,1609
45.1735,1619
45.1861,1628
45.1861,1641
45.2001,1637
45.2061,1645
45.2402,1652
45.2402,1657
45.2417,1667
45.2425,1675
45.2446,1699
45.2741,1738
45.2741,1787
45.2751,1880
45.2801,1992
45.2848,2134
45.2848,2290
45.3064,2450
45.3068,2625
45.3109,2795
45.3248,2943
45.3259,3078
45.3386,3172
45.3466,3245
45.3963,3269
45.3973,3252
45.3983,3209
45.3983,3126
45.4033,3019
45.4053,2889
45.4063,2734
45.4073,2586
45.4190,2422
45.4314,2260
45.4320,2106
45.4372,1956
45.4465,1833
45.4600,1722
45.4659,1627
45.4669,1557
45.4800,1492
45.4810,1450
45.5109,1413
45.5129,1389
45.5129,1386
45.5159,1383
45.5291,1398
45.5376,1418
45.5376,1443
45.5438,1483
45.5576,1523
45.5665,1575
45.5796,1636
45.5816,1690
45.5856,1749
45.6001,1796
45.6061,1847
45.6061,1900
45.6363,1934
45.6363,1972
45.6413,1991
45.6463,2006
45.6463,2014
45.6588,1995
45.6729,1980
45.6739,1961
45.6739,1935
45.6876,1913
45.6940,1873
45.7201,1843
45.7211,1813
45.7465,1773
45.7465,1742
45.7476,1707
45.7657,1682
45.7677,1663
45.7677,1633
45.7687,1616
45.7859,1597
45.7876,1586
45.7876,1577
45.8051,1562
45.8051,1568
45.8175,1570
45.8314,1568
45.8324,1572
45.8334,1575
45.8634,1590
45.8644,1598
45.8694,1601
45.8836,1617
45.8846,1626
45.8846,1640
45.8976,1649
45.8976,1650
45.9057,1665
45.9200,1666
45.9337,1670
45.9347,1675
45.9347,1674
45.9451,1680
45.9588,1680
45.9845,1681
45.9858,1697
45.9868,1715
45.9909,1760
45.9919,1822
46.0062,1912
46.0062,2038
46.0188,2174
46.0326,2331
46.0414,2497
46.0414,2659
46.0514,2821
46.0574,2952
46.0715,3067
46.0795,3154
46.0805,3204
46.1071,3226
46.1081,3201
46.1100,3147
46.1197,3065
46.1287,2948
46.1287,2818
46.1347,2664
46.1481,2508
46.1492,2354
46.1553,2194
46.1683,2049
46.1773,1916
46.1773,1794
46.1863,1690
46.2194,1590
46.2214,1516
46.2276,1459
46.2276,1405
46.2286,1375
46.2346,1352
46.2481,1350
46.2587,1360
46.2587,1369
46.2647,1401
46.2790,1432
46.2850,1476
46.2973,1528
46.3058,1576
46.3068,1642
46.3148,1705
46.3401,1761
46.3401,1820
46.3411,1864
46.3421,1919
46.3745,1959
46.3755,1984
46.3775,2013
46.3775,2024
46.3884,2028
46.3974,2018
46.3974,1989
46.4108,1973
46.4118,1940
46.4289,1907
46.4572,1871
46.4582,1827
46.4582,1793
46.4672,1751
46.4761,1714
46.4771,1690
46.4771,1662
46.4872,1645
46.5201,1624
46.5211,1605
46.5211,1599
46.5221,1582
46.5231,1573
46.5371,1572
46.5388,1575
46.5683,1585
46.5693,1586
46.5703,1589
46.5803,1601
46.5814,1601
46.5814,1607
46.5950,1604
46.6084,1611
46.6144,1625
46.6245,1630
46.6245,1644
46.6381,1654
46.6447,1664
46.6447,1677
46.6581,1674
46.6711,1682
46.6956,1693
46.6977,1707
46.6977,1736
46.6987,1768
46.7106,1836
46.7247,1931
46.7247,2035
46.7337,2168
46.7398,2305
46.7456,2460
46.7601,2616
46.7601,2746
46.7688,2869
46.7825,2966
46.8162,3040
46.8173,3084
46.8173,3082
46.8233,3062
46.8243,3006
46.8262,2918
46.8437,2815
46.8437,2682
46.8499,2553
46.8589,2410
46.8589,2259
46.8695,2125
46.8705,1990
46.8833,1873
46.8978,1762
46.8988,1660
46.9062,1587
46.9312,1519
46.9322,1463
46.9332,1426
46.9357,1394
46.9497,1383
46.9548,1373
46.9685,1375
46.9685,1400
46.9695,1425
46.9865,1468
47.0149,1509
47.0159,1556
47.0169,1615
47.0179,1663
47.0492,1714
47.0501,1766
47.0511,1813
47.0520,1870
47.0530,1907
47.0684,1942
47.0694,1974
47.0937,1988
47.0937,2001
47.0996,1995
47.1137,1987
47.1226,1981
47.1286,1954
47.1286,1933
47.1343,1905
47.1603,1874
47.1617,1849
47.1627,1809
47.1687,1777
47.1790,1750
47.1790,1723
47.1962,1707
47.1962,1680
47.2099,1664
47.2159,1650
47.2169,1629
47.2237,1616
47.2378,1602
47.2438,1600
47.2612,1604
47.2612,1599
47.2622,1604
47.2892,1606
47.2902,1607
47.2922,1609
47.3162,1604
47.3172,1614
47.3172,1621
47.3262,1623
47.3424,1635
47.3440,1634
47.3451,1650
47.3587,1663
47.3597,1675
47.3788,1710
47.3788,1754
47.4026,1825
47.4036,1917
47.4036,2023
47.4046,2163
47.4211,2308
47.4224,2461
47.4325,2621
47.4335,2767
47.4504,2906
47.4544,3009
47.4790,3083
47.4790,3135
47.4800,3140
47.4810,3119
47.4987,3065
47.5275,2978
47.5275,2877
47.5285,2747
47.5295,2609
47.5484,2465
47.5494,2316
47.5504,2182
47.5574,2039
47.5659,1913
47.5842,1804
47.5922,1701
47.5922,1620
47.5987,1541
47.6068,1485
47.6131,1450
47.6400,1418
47.6400,1406
47.6413,1400
47.6744,1407
47.6762,1431
47.6772,1444
47.6782,1475
47.6792,1513
47.6902,1554
47.6902,1609
47.7035,1652
47.7044,1706
47.7185,1764
47.7194,1810
47.7204,1857
47.7525,1896
47.7535,1932
47.7650,1966
47.7650,1975
47.7660,1990
47.8006,1989
47.8016,1980
47.8025,1966
47.8037,1935
47.8037,1914
47.8148,1883
47.8287,1843
47.8287,1808
47.8338,1769
47.8520,1741
47.8765,1712
47.8775,1676
47.8789,1662
47.8789,1642
47.8849,1634
47.9100,1627
47.9100,1612
47.9187,1612
47.9237,1602
47.9294,1594
47.9304,1591
47.9558,1587
47.9568,1595
47.9699,1599
47.9935,1598
47.9945,1608
47.9945,1609
47.9955,1619
47.9975,1626
48.0153,1631
48.0163,1648
48.0163,1649
48.0300,1660
48.0360,1674
48.0360,1698
48.0420,1749
48.0562,1814
48.0645,1905
48.0787,2032
48.0787,2168
48.0846,2330
48.1120,2490
48.1130,2658
48.1146,2827
48.1275,2967
48.1275,3092
48.1362,3181
48.1494,3234
48.1504,3260
48.1560,3233
48.1683,3184
48.1924,3106
48.1934,2995
48.1934,2872
48.1944,2719
48.2074,2567
48.2322,2415
48.2332,2256
48.2342,2112
48.2431,1969
48.2446,1852
48.2562,1751
48.2562,1655
48.2811,1583
48.2820,1524
48.3037,1478
48.3037,1450
48.3057,1423
48.3057,1420
48.3199,1424
48.3509,1433
48.3519,1457
48.3519,1479
48.3529,1521
48.3549,1564
48.3674,1606
48.3674,1663
48.3784,1715
48.3842,1774
48.3987,1829
48.3999,1873
48.4049,1922
48.4189,1955
48.4332,1974
48.4342,1988
48.4362,1982
48.4663,1985
48.4673,1970
48.4712,1948
48.4712,1931
48.4722,1902
48.4805,1876
48.4949,1842
48.5089,1807
48.5089,1782
48.5169,1744
48.5276,1713
48.5513,1682
48.5513,1654
48.5553,1643
48.5813,1622
48.5823,1613
48.5943,1612
48.5953,1608
48.5963,1608
48.5973,1601
48.6152,1600
48.6152,1608
48.6298,1603
48.6298,1606
48.6308,1603
48.6486,1603
48.6486,1612
48.6549,1604
48.6689,1609
48.6749,1615
48.7030,1621
48.7040,1635
48.7050,1638
48.7071,1659
48.7183,1695
48.7199,1743
48.7199,1825
48.7364,1926
48.7500,2057
48.7510,2209
48.7510,2364
48.7657,2539
48.7799,2711
48.7859,2875
48.7859,3028
48.7949,3140
48.8194,3240
48.8204,3302
48.8224,3318
48.8358,3301
48.8358,3237
48.8475,3150
48.8624,3034
48.8624,2885
48.8762,2736
48.8762,2573
48.8842,2415
48.8988,2260
48.8998,2103
48.9329,1971
48.9349,1842
48.9613,1725
48.9613,1625
48.9633,1534
48.9633,1475
48.9649,1422
48.9660,1386
48.9812,1373
48.9812,1371
48.9822,1388
48.9972,1409
49.0087,1436
49.0087,1482
49.0227,1521
49.0237,1567
49.0478,1615
49.0493,1663
49.0869,1723
49.0879,1772
49.0889,1822
49.0949,1878
49.0949,1918
49.0959,1960
49.0969,1981
49.1074,1997
49.1195,2010
49.1260,1999
49.1260,1986
49.1399,1962
49.1444,1935
49.1506,1910
49.1758,1868
49.1768,1832
49.1838,1795
49.1917,1760
49.2045,1732
49.2045,1695
49.2135,1670
49.2222,1651
49.2222,1622
49.2363,1606
49.2444,1583
49.2529,1574
49.2624,1568
49.2624,1555
49.2675,1556
49.2931,1555
49.2941,1558
49.2971,1567
49.3061,1562
49.3061,1576
49.3163,1588
49.3294,1593
49.3304,1604
49.3314,1604
49.3444,1615
49.3573,1621
49.3662,1618
49.3742,1629
49.3752,1631
49.3888,1640
49.4147,1647
49.4157,1654
49.4167,1687
49.4212,1732
49.4269,1796
49.4279,1889
49.4496,2005
49.4510,2156
49.4520,2319
49.4650,2492
49.4736,2678
49.4736,2851
49.4866,3017
49.4936,3153
49.5223,3256
49.5223,3334
49.5232,3357
49.5319,3344
49.5337,3290
49.5449,3196
49.5449,3079
49.5720,2927
49.5740,2758
49.5750,2589
49.5750,2406
49.5886,2241
49.5943,2070
49.6080,1920
49.6130,1793
49.6392,1671
49.6402,1573
49.6412,1489
49.6531,1422
49.6541,1380
49.6770,1337
49.6780,1318
49.6800,1313
49.6800,1315
49.6960,1337
49.6960,1354
49.7100,1390
49.7160,1437
49.7160,1481
49.7250,1535
49.7383,1585
49.7628,1642
49.7649,1700
49.7649,1742
49.7729,1793
49.7748,1834
49.7878,1871
49.7898,1905
49.7898,1914
49.8060,1931
49.8191,1935
49.8211,1929
49.8211,1919
49.8383,1892
49.8443,1871
49.8579,1845
49.8599,1810
49.8860,1784
49.8872,1749
49.8872,1719
49.8961,1688
49.9046,1652
49.9056,1629
49.9176,1602
49.9306,1580
49.9316,1566
49.9467,1543
49.9477,1539
49.9530,1527
49.9674,1517
49.9684,1519
49.9684,1515
50.0036,1524
50.0066,1530
50.0066,1539
50.0077,1560
50.0160,1568
50.0285,1576
50.0418,1585
50.0428,1586
50.0438,1597
50.0573,1595
50.0635,1593
50.0774,1600
50.0774,1599
50.0939,1606
50.1192,1602
50.1211,1607
50.1281,1621
50.1292,1621
50.1292,1628
50.1362,1634
50.1519,1649
50.1529,1680
50.1529,1708
50.1671,1765
50.1840,1839
50.1850,1939
50.1993,2066
50.2003,2207
50.2013,2370
50.2147,2544
50.2157,2704
50.2399,2866
50.2404,2996
50.2422,3109
50.2559,3193
50.2559,3229
50.2679,3238
50.2769,3208
50.2862,3143
50.2862,3047
50.2948,2905
50.3126,2759
50.3136,2599
50.3273,2430
50.3273,2267
50.3760,2102
50.3770,1957
50.4023,1820
50.4037,1691
50.4047,1594
50.4047,1507
50.4057,1438
50.4067,1386
50.4087,1339
50.4097,1321
50.4269,1305
50.4329,1305
50.4339,1317
50.4474,1337
50.4474,1376
50.4748,1414
50.4758,1452
50.4910,1507
50.4910,1558
50.4920,1617
50.4970,1671
50.5060,1722
50.5060,1785
50.5200,1831
50.5262,1876
50.5398,1911
50.5398,1934
50.5408,1954
50.5567,1955
50.5638,1949
50.5947,1944
50.5957,1923
50.5957,1902
50.5967,1865
50.6107,1831
50.6117,1804
50.6237,1766
50.6237,1740
50.6369,1706
50.6450,1674
50.6450,1654
50.6585,1619
50.6645,1594
50.6783,1572
50.6793,1551
50.7048,1545
50.7048,1532
50.7060,1535
50.7236,1539
50.7253,1539
50.7253,1546
50.7398,1548
50.7456,1557
50.7729,1572
50.7739,1573
50.7749,1590
50.7799,1602
50.7809,1617
50.8055,1632
50.8065,1634
50.8586,1645
50.8596,1656
50.8688,1660
50.8688,1669
50.8698,1663
50.8709,1670
50.8719,1670
50.8729,1664
50.8749,1675
50.8749,1689
50.9001,1722
50.9051,1772
50.9051,1831
50.9061,1926
50.9174,2032
50.9463,2156
50.9463,2295
50.9483,2430
50.9493,2576
50.9597,2704
50.9687,2816
50.9697,2916
50.9697,2982
50.9873,3020
50.9923,3018
51.0063,2977
51.0063,2917
51.0125,2815
51.0297,2700
51.0361,2568
51.0361,2427
51.0609,2289
51.0619,2144
51.0742,2003
51.0762,1881
51.0762,1761
51.0892,1665
51.0910,1575
51.1087,1504
51.1148,1454
51.1285,1406
51.1295,1383
51.1345,1367
51.1448,1364
51.1448,1379
51.1587,1387
51.1862,1413
51.1872,1449
51.1882,1486
51.1955,1534
51.1963,1576
51.2045,1630
51.2184,1689
51.2194,1734
51.2194,1785
51.2355,1824
51.2445,1868
51.2581,1904
51.2581,1923
51.2641,1940
51.2783,1948
51.3031,1945
51.3041,1939
51.3121,1910
51.3181,1887
51.3191,1856
51.3361,1820
51.3372,1787
51.3372,1745
51.3513,1717
51.3513,1690
51.3526,1654
51.3683,1638
51.3758,1616
51.3897,1603
51.3907,1593
51.3907,1577
51.4185,1578
51.4195,1570
51.4243,1566
51.4363,1564
51.4363,1561
51.4497,1570
51.4562,1573
51.4922,1576
51.4934,1590
51.4944,1595
51.4946,1607
51.4956,1613
51.5099,1615
51.5109,1629
51.5109,1627
51.5398,1632
51.5410,1634
51.5417,1635
51.5427,1643
51.5543,1642
51.5682,1647
51.5692,1670
51.5702,1701
51.5897,1758
51.5957,1823
51.6098,1910
51.6098,2018
51.6434,2126
51.6434,2252
51.6672,2378
51.6682,2508
51.6692,2638
51.6692,2745
51.6702,2841
51.6884,2918
51.6894,2961
51.6894,2978
51.6944,2952
51.7080,2906
51.7150,2837
51.7309,2735
51.7309,2622
51.7319,2484
51.7457,2346
51.7745,2213
51.7755,2074
51.7755,1953
51.7765,1842
51.7855,1743
51.7855,1663
51.7915,1584
51.8058,1534
51.8148,1489
51.8281,1455
51.8291,1436
51.8341,1417
51.8498,1419
51.8508,1430
51.8647,1441
51.8902,1469
51.8911,1494
51.8921,1529
51.8931,1567
51.8941,1599
51.9072,1652
51.9195,1695
51.9257,1737
51.9347,1781
51.9498,1811
51.9498,1850
51.9508,1872
51.9670,1886
51.9720,1904
51.9720,1907
51.9860,1906
52.0110,1892
52.0120,1868
52.0120,1855
52.0360,1825
52.0360,1799
52.0370,1771
52.0370,1738
52.0460,1716
52.0532,1682
52.0670,1657
52.0730,1641
52.0740,1619
52.0861,1607
52.0996,1588
52.1060,1573
52.1060,1569
52.1393,1556
52.1402,1557
52.1663,1558
52.1673,1563
52.1784,1576
52.1794,1574
52.1804,1586
52.1824,1595
52.1834,1605
52.1961,1618
52.1961,1620
52.2047,1628
52.2182,1641
52.2192,1643
52.2192,1653
52.2464,1656
52.2485,1662
52.2547,1670
52.2547,1666
52.2687,1671
52.2747,1674
52.3010,1678
52.3020,1694
52.3058,1710
52.3148,1754
52.3158,1812
52.3319,1881
52.3342,1973
52.3629,2076
52.3639,2202
52.3649,2341
52.3699,2472
52.3709,2612
52.3709,2730
52.3836,2836
52.4006,2917
52.4006,2964
52.4016,2998
52.4176,2991
52.4259,2950
52.4349,2888
52.4471,2793
52.4481,2692
52.4556,2569
52.4847,2435
52.4847,2307
52.4857,2174
52.4897,2051
52.4984,1930
52.5068,1818
52.5078,1736
52.5158,1655
52.5253,1593
52.5394,1539
52.5404,1497
52.5414,1478
52.5546,1460
52.5670,1452
52.5730,1460
52.5740,1469
52.6061,1493
52.6071,1515
52.6081,1545
52.6134,1589
52.6273,1621
52.6273,1665
52.6333,1704
52.6455,1742
52.6465,1787
52.6600,1814
52.6660,1844
52.6792,1870
52.6802,1885
52.7103,1898
52.7113,1895
52.7233,1892
52.7243,1891
52.7317,1873
52.7327,1862
52.7337,1837
52.7447,1819
52.7720,1803
52.7730,1774
52.7730,1756
52.7739,1734
52.7872,1714
52.7922,1695
52.7922,1664
52.8204,1648
52.8221,1635
52.8462,1619
52.8462,1614
52.8472,1600
52.8482,1602
52.8763,1598
52.8763,1585
52.8783,1586
52.8783,1582
52.8843,1586
52.9198,1590
52.9198,1584
52.9208,1592
52.9221,1597
52.9234,1603
52.9234,1617
52.9547,1623
52.9547,1645
52.9619,1656
52.9629,1664
52.9810,1679
52.9810,1685
52.9820,1696
52.9959,1696
53.0041,1692
53.0052,1699
53.0170,1699
53.0309,1709
53.0319,1733
53.0329,1768
53.0457,1832
53.0746,1899
53.0756,1987
53.0766,2095
53.0776,2208
53.0859,2338
53.0979,2460
53.1070,2580
53.1070,2697
53.1159,2782
53.1240,2853
53.1416,2895
53.1486,2908
53.1486,2899
53.1572,2850
53.1655,2786
53.1934,2700
53.1934,2596
53.2033,2488
53.2033,2363
53.2046,2239
53.2198,2122
53.2209,1998
53.2209,1889
53.2339,1783
53.2479,1697
53.2489,1631
53.2499,1564
53.2652,1524
53.2811,1493
53.2861,1476
53.2861,1469
53.3150,1454
53.3180,1460
53.3190,1474
53.3284,1491
53.3290,1521
53.3348,1548
53.3482,1590
53.3547,1634
53.3678,1667
53.3698,1714
53.3698,1748
53.3855,1789
53.4236,1818
53.4246,1834
53.4486,1860
53.4496,1875
53.4506,1880
53.4506,1884
53.4516,1875
53.4526,1875
53.4582,1862
53.4722,1841
53.4722,1831
53.4858,1809
53.4858,1791
53.4939,1766
53.5077,1741
53.5087,1730
53.5147,1711
53.5460,1693
53.5470,1677
53.5470,1657
53.5510,1649
53.5520,1632
53.5690,1621
53.5710,1620
53.5710,1616
53.5840,1623
53.5982,1621
53.6070,1621
53.6160,1631
53.6170,1627
53.6435,1632
53.6445,1631
53.6704,1635
53.6714,1647
53.6714,1644
53.6734,1643
53.6745,1644
53.6904,1643
53.6914,1651
53.6921,1647
53.7152,1652
53.7166,1662
53.7176,1666
53.7230,1680
53.7330,1685
53.7466,1696
53.7535,1707
53.7535,1704
53.7807,1712
53.7817,1726
53.7867,1754
53.7957,1802
53.7957,1853
53.8059,1932
53.8278,2019
53.8335,2108
53.8335,2209
53.8416,2302
53.8486,2408
53.8619,2506
53.8629,2585
53.8761,2658
53.8761,2704
53.9003,2734
53.9023,2735
53.9033,2703
53.9043,2660
53.9183,2591
53.9243,2503
53.9353,2410
53.9363,2299
53.9499,2200
53.9559,2091
53.9683,1984
53.9683,1891
53.9831,1799
53.9841,1729
54.0096,1665
54.0106,1608
54.0106,1575
54.0257,1537
54.0597,1518
54.0607,1509
54.0607,1504
54.0741,1515
54.0751,1516
54.0771,1528
54.0782,1549
54.0782,1570
54.0903,1603
54.0993,1631
54.1060,1663
54.1060,1710
54.1310,1740
54.1320,1776
54.1466,1805
54.1486,1831
54.1496,1861
54.1577,1874
54.1714,1890
54.1995,1902
54.2045,1906
54.2105,1908
54.2115,1896
54.2115,1885
54.2245,1878
54.2258,1856
54.2596,1841
54.2596,1811
54.2606,1792
54.2616,1773
54.2616,1742
54.2626,1721
54.2766,1704
54.2859,1691
54.3000,1687
54.3010,1670
54.3020,1667
54.3146,1662
54.3266,1651
54.3276,1649
54.3359,1638
54.3496,1643
54.3813,1649
54.3813,1647
54.3843,1654
54.3843,1654
54.3853,1660
54.3996,1663
54.4006,1658
54.4056,1667
54.4196,1670
54.4256,1672
54.4266,1678
54.4509,1678
54.4512,1693
54.4558,1701
54.4808,1709
54.4819,1730
54.4970,1747
54.4970,1778
54.4980,1817
54.5121,1868
54.5131,1944
54.5131,2014
54.5259,2097
54.5389,2183
54.5399,2269
54.5409,2362
54.5550,2434
54.5644,2500
54.5796,2558
54.5796,2588
54.6056,2609
54.6065,2600
54.6135,2574
54.6135,2537
54.6268,2469
54.6278,2395
54.6358,2309
54.6492,2219
54.6502,2136
54.6552,2037
54.6917,1952
54.6927,1873
54.6937,1799
54.6957,1741
54.6957,1681
54.7245,1638
54.7257,1606
54.7394,1568
54.7394,1548
54.7404,1526
54.7414,1522
54.7567,1529
54.7567,1528
54.7671,1543
54.7751,1564
54.7871,1590
54.7871,1626
54.7901,1653
54.8071,1696
54.8131,1739
54.8379,1776
54.8379,1811
54.8389,1835
54.8821,1865
54.8831,1889
54.8841,1895
54.8851,1910
54.8861,1911
54.8871,1916
54.9042,1915
54.9052,1902
54.9052,1893
54.9191,1875
54.9336,1852
54.9336,1832
54.9647,1803
54.9647,1790
54.9657,1770
54.9667,1746
54.9734,1731
54.9864,1711
54.9874,1700
54.9957,1687
55.0045,1671
55.0045,1668
55.0185,1658
55.0245,1656
55.0379,1654
55.0439,1650
55.0449,1662
55.0584,1659
55.0843,1659
55.0853,1664
55.0853,1662
55.0863,1670
55.1002,1673
55.1012,1678
55.1022,1694
55.1181,1694
55.1231,1702
55.1370,1708
55.1430,1724
55.1430,1755
55.1571,1793
55.1657,1851
55.1932,1925
55.1942,2006
55.2018,2100
55.2018,2185
55.2028,2279
55.2173,2376
55.2183,2456
55.2342,2531
55.2352,2587
55.2484,2631
55.2494,2658
55.2494,2651
55.2668,2636
55.2758,2597
55.2898,2543
55.2898,2475
55.3308,2382
55.3318,2291
55.3458,2196
55.3468,2093
55.3478,1998
55.3488,1899
55.3498,1825
55.3759,1757
55.3759,1694
55.3770,1649
55.3780,1608
55.3854,1581
55.3977,1563
55.4057,1544
55.4310,1547
55.4320,1547
55.4409,1552
55.4409,1567
55.4429,1578
55.4429,1608
55.4796,1630
55.4806,1655
55.4816,1693
55.4826,1726
55.4836,1763
55.4965,1792
55.5035,1814
55.5035,1848
55.5171,1869
55.5250,1893
55.5545,1913
55.5545,1921
55.5555,1932
55.5565,1924
55.5671,1911
55.5807,1901
55.5807,1878
55.5817,1865
55.5979,1839
55.6069,1819
55.6145,1805
55.6155,1782
55.6315,1768
55.6459,1752
55.6469,1735
55.6469,1730
55.6707,1713
55.6717,1705
55.6769,1695
55.6769,1682
55.6957,1675
55.6957,1659
55.7039,1655
55.7146,1658
55.7226,1657
55.7367,1667
55.7377,1669
55.7427,1679
55.7567,1693
55.7577,1691
55.7660,1701
55.7910,1707
55.7920,1714
55.7920,1723
55.7932,1722
55.8082,1735
55.8132,1754
55.8227,1777
55.8237,1828
55.8367,1885
55.8457,1967
55.8591,2061
55.8591,2156
55.8601,2267
55.8772,2375
55.8802,2486
55.9085,2585
55.9085,2661
55.9095,2732
55.9145,2781
55.9304,2804
55.9324,2806
55.9714,2771
55.9724,2729
55.9734,2655
55.9744,2564
55.9754,2472
55.9860,2369
55.9860,2270
55.9993,2167
56.0003,2058
56.0013,1968
56.0258,1875
56.0368,1798
56.0377,1730
56.0387,1669
56.0387,1633
56.0637,1596
56.0647,1571
56.0757,1558
56.0757,1546
56.0880,1548
56.0965,1549
56.1094,1558
56.1094,1586
56.1154,1605
56.1454,1637
56.1464,1668
56.1484,1704
56.1484,1747
56.1647,1775
56.1657,1807
56.1795,1836
56.1795,1857
56.1971,1883
56.1971,1893
56.2031,1906
56.2166,1919
56.2226,1919
56.2366,1922
56.2376,1915
56.2613,1909
56.2629,1906
56.2639,1882
56.2715,1868
56.2725,1846
56.2865,1826
56.2894,1808
56.2894,1780
56.3071,1762
56.3125,1744
56.3270,1721
56.3280,1707
56.3356,1691
56.3454,1691
56.3707,1691
56.3707,1680
56.3717,1680
56.3876,1676
56.3896,1678
56.3947,1676
56.3947,1666
56.4077,1672
56.4141,1674
56.4316,1678
56.4326,1684
56.4426,1683
56.4436,1695
56.4571,1695
56.4631,1691
56.4986,1698
56.4996,1699
56.4996,1713
56.5057,1733
56.5067,1765
56.5067,1832
56.5177,1904
56.5268,1995
56.5403,2096
56.5413,2197
56.5413,2315
56.5540,2423
56.5682,2529
56.5692,2639
56.5692,2726
56.5990,2806
56.6000,2845
56.6296,2863
56.6300,2860
56.6310,2821
56.6414,2768
56.6464,2691
56.6539,2598
56.6549,2501
56.6599,2381
56.6664,2266
56.6808,2149
56.6818,2038
56.6955,1938
56.6955,1839
56.7055,1756
56.7307,1694
56.7317,1635
56.7327,1594
56.7337,1558
56.7619,1541
56.7634,1530
56.7644,1518
56.7734,1522
56.7744,1528
56.7862,1539
56.7946,1562
56.7946,1575
56.8026,1612
56.8172,1649
56.8233,1686
56.8233,1728
56.8496,1764
56.8506,1805
56.8557,1843
56.8611,1866
56.8727,1899
56.8727,1919
56.8864,1941
56.8954,1957
56.8964,1960
56.9145,1968
56.9154,1966
56.9293,1956
56.9293,1942
56.9483,1914
56.9483,1897
56.9680,1869
56.9719,1836
56.9719,1811
56.9852,1781
56.9862,1764
56.9942,1742
57.0079,1716
57.0089,1705
57.0219,1684
57.0278,1667
57.0418,1654
57.0418,1640
57.0474,1645
57.0565,1636
57.0625,1635
57.0915,1640
57.0915,1643
57.0925,1653
57.0925,1658
57.1045,1663
57.1145,1678
57.1276,1680
57.1286,1688
57.1286,1691
57.1427,1695
57.1427,1705
57.1550,1702
57.1694,1705
57.2046,1715
57.2046,1728
57.2131,1764
57.2131,1806
57.2146,1878
57.2156,1967
57.2517,2057
57.2517,2168
57.2527,2277
57.2537,2398
57.2557,2521
57.2557,2622
57.2692,2717
57.2777,2794
57.2917,2850
57.2927,2887
57.2927,2879
57.3175,2861
57.3195,2814
57.3328,2740
57.3338,2652
57.3338,2540
57.3575,2429
57.3595,2314
57.3606,2187
57.3769,2074
57.3769,1960
57.3883,1858
57.3943,1768
57.3953,1677
57.4179,1616
57.4434,1559
57.4445,1517
57.4445,1488
57.4464,1466
57.4464,1470
57.4618,1474
57.4672,1484
57.4757,1511
57.4841,1539
57.4841,1580
57.4931,1618
57.5065,1654
57.5075,1703
57.5156,1741
57.5246,1785
57.5382,1827
57.5392,1861
57.5617,1905
57.5627,1929
57.5637,1949
57.5797,1971
57.5797,1980
57.5837,1991
57.5956,1984
57.6096,1973
57.6096,1966
57.6142,1940
57.6276,1917
57.6336,1887
57.6477,1856
57.6487,1839
57.6540,1809
57.6808,1789
57.6818,1766
57.6828,1743
57.7012,1729
57.7021,1705
57.7061,1692
57.7503,1686
57.7513,1668
57.7533,1664
57.7533,1654
57.7657,1657
57.7667,1662
57.7677,1660
57.7677,1665
57.7982,1670
57.7992,1679
57.8002,1696
57.8052,1699
57.8062,1717
57.8155,1727
57.8295,1733
57.8295,1740
57.8305,1736
57.8465,1745
57.8556,1748
57.8616,1746
57.8920,1763
57.8920,1784
57.8930,1827
57.9207,1891
57.9207,1966
57.9217,2072
57.9288,2183
57.9308,2303
57.9318,2428
57.9454,2543
57.9454,2662
57.9533,2759
57.9669,2831
57.9679,2890
57.9919,2909
57.9929,2906
57.9929,2867
58.0089,2802
58.0099,2726
58.0109,2626
58.0539,2515
58.0549,2400
58.0755,2278
58.0755,2169
58.0765,2049
58.0775,1945
58.0795,1857
58.0795,1773
58.1052,1708
58.1062,1644
58.1155,1594
58.1245,1564
58.1245,1528
58.1518,1510
58.1529,1500
58.1539,1502
58.1549,1523
58.1549,1540
58.1683,1571
58.1744,1609
58.1881,1647
58.1881,1698
58.1942,1732
58.2082,1779
58.2165,1831
58.2175,1871
58.2365,1914
58.2375,1941
58.2427,1969
58.2717,1995
58.2717,1995
58.2728,1999
58.2748,1992
58.2888,1982
58.2898,1974
58.2898,1943
58.3068,1923
58.3133,1900
58.3282,1869
58.3291,1841
58.3341,1803
58.3479,1781
58.3539,1760
58.3793,1732
58.3803,1720
58.3803,1705
58.3974,1701
58.3993,1695
58.3993,1682
58.4075,1685
58.4175,1683
58.4320,1682
58.4330,1680
58.4469,1671
58.4469,1676
58.4529,1678
58.4661,1676
58.4712,1686
58.5059,1684
58.5059,1692
58.5069,1689
58.5326,1687
58.5338,1699
58.5338,1707
58.5356,1722
58.5366,1747
58.5458,1782
58.5458,1849
58.5538,1920
58.5678,2009
58.5738,2119
58.5748,2236
58.5876,2372
58.5936,2503
58.6227,2635
58.6237,2765
58.6247,2859
58.6277,2936
58.6368,2980
58.6451,2998
58.6461,2996
58.6531,2951
58.6661,2887
58.6802,2799
58.6812,2687
58.6940,2572
58.6940,2434
58.7075,2305
58.7141,2178
58.7151,2048
58.7483,1931
58.7483,1820
58.7493,1731
58.7533,1662
58.7533,1594
58.7663,1553
58.7753,1523
58.7893,1509
58.7893,1507
58.7903,1502
58.8017,1512
58.8139,1530
58.8279,1547
58.8289,1582
58.8365,1607
58.8652,1648
58.8667,1688
58.8677,1721
58.8747,1763
58.8757,1798
58.8894,1837
58.8904,1876
58.8904,1899
58.9064,1935
58.9154,1954
58.9289,1971
58.9299,1980
58.9468,1977
58.9468,1978
58.9772,1966
58.9781,1941
58.9937,1925
58.9956,1896
58.9956,1875
59.0037,1844
59.0178,1808
59.0188,1785
59.0249,1754
59.0337,1728
59.0431,1709
59.0431,1686
59.0519,1680
59.0637,1663
59.0909,1652
59.0919,1645
59.0919,1637
59.1054,1643
59.1064,1643
59.1074,1644
59.1084,1656
59.1234,1653
59.1244,1661
59.1368,1660
59.1458,1663
59.1458,1676
59.1708,1675
59.1718,1681
59.1881,1689
59.1881,1693
59.1901,1708
59.1901,1712
59.2154,1736
59.2164,1774
59.2230,1825
59.2363,1904
59.2373,1993
59.2418,2107
59.2592,2243
59.2652,2376
59.2652,2528
59.2788,2672
59.2848,2809
59.2858,2935
59.2917,3025
59.3186,3097
59.3206,3134
59.3465,3132
59.3465,3100
59.3475,3027
59.3565,2937
59.3575,2827
59.3655,2693
59.3775,2557
59.3785,2407
59.3825,2265
59.3971,2129
59.3971,1988
59.4051,1877
59.4178,1777
59.4459,1694
59.4459,1629
59.4589,1571
59.4589,1541
59.4605,1517
59.4717,1497
59.4867,1494
59.4867,1490
59.4877,1502
59.4958,1517
59.5050,1537
59.5059,1580
59.5139,1616
59.5281,1658
59.5341,1697
59.5441,1732
59.5441,1780
59.5694,1814
59.5703,1851
59.5768,1892
59.5768,1919
59.5915,1947
59.5924,1959
59.6060,1966
59.6080,1980
59.6248,1976
59.6248,1974
59.6392,1960
59.6400,1943
59.6411,1929
59.6541,1895
59.6825,1864
59.6835,1831
59.6943,1797
59.6953,1776
59.6953,1741
59.7077,1720
59.7167,1700
59.7167,1672
59.7363,1653
59.7373,1633
59.7429,1625
59.7570,1628
59.7570,1616
59.7654,1618
59.7791,1616
59.7855,1619
59.7855,1625
59.8205,1622
59.8217,1631
59.8477,1644
59.8487,1652
59.8487,1668
59.8497,1667
59.8517,1677
59.8567,1682
59.8664,1678
59.8664,1683
59.8799,1683
59.8809,1691
59.8950,1708
59.8960,1724
59.9262,1771
59.9272,1834
59.9314,1921
59.9324,2030
59.9406,2148
59.9528,2299
59.9617,2446
59.9703,2589
59.9703,2735
59.9851,2861
59.9859,2978
59.9987,3065
60.0160,3115
60.0170,3148
60.0404,3138
60.0414,3098
60.0428,3027
60.0438,2927
60.0438,2819
60.0582,2685
60.0642,2540
60.0775,2404
60.0785,2262
60.0835,2137
60.0984,2010
60.1064,1893
60.1074,1800
60.1167,1709
60.1257,1643
60.1337,1584
60.1604,1542
60.1614,1518
60.1614,1492
60.1664,1478
60.1865,1477
60.1875,1481
60.1925,1502
60.1935,1515
60.2062,1546
60.2212,1587
60.2281,1626
60.2417,1675
60.2417,1716
60.2501,1763
60.2800,1810
60.2810,1842
60.2820,1878
60.2850,1909
60.2860,1935
60.2870,1958
60.2950,1960
60.3017,1965
60.3157,1965
60.3240,1951
60.3250,1943
60.3375,1920
60.3445,1903
60.3573,1884
60.3603,1850
60.4072,1827
60.4082,1794
60.4092,1770
60.4102,1745
60.4102,1711
60.4112,1692
60.4122,1670
60.4449,1651
60.4470,1638
60.4629,1621
60.4640,1623
60.4650,1620
60.4660,1614
60.4767,1615
60.4767,1612
60.4900,1618
60.5147,1620
60.5170,1615
60.5170,1627
60.5236,1630
60.5256,1642
60.5366,1652
60.5366,1660
60.5497,1677
60.5547,1682
60.5642,1682
60.6058,1687
60.6069,1684
60.6069,1690
60.6079,1683
60.6089,1683
60.6089,1694
60.6336,1693
60.6376,1700
60.6386,1704
60.6482,1712
60.6492,1742
60.6614,1771
60.6624,1827
60.6791,1903
60.6801,1993
60.6938,2110
60.6948,2230
60.7119,2371
60.7128,2524
60.7138,2670
60.7267,2814
60.7529,2931
60.7539,3028
60.7555,3100
60.7555,3124
60.7705,3128
60.7750,3095
60.7880,3033
60.7880,2949
60.7945,2827
60.8075,2700
60.8165,2563
60.8254,2415
60.8254,2274
60.8344,2127
60.8615,1997
60.8629,1880
60.8740,1768
60.8750,1684
60.8879,1607
60.8879,1550
60.9009,1507
60.9009,1463
60.9021,1446
60.9200,1436
60.9260,1436
60.9270,1448
60.9441,1460
60.9441,1496
60.9539,1528
60.9803,1562
60.9803,1610
60.9893,1653
60.9893,1707
60.9903,1754
61.0090,1795
61.0104,1848
61.0104,1891
61.0244,1933
61.0365,1967
61.0450,1985
61.0460,2011
61.0540,2013
61.0630,2008
61.0912,1999
61.0922,1976
61.0922,1957
61.1203,1924
61.1213,1892
61.1223,1865
61.1233,1826
61.1243,1793
61.1496,1760
61.1496,1727
61.1506,1706
61.1506,1672
61.1666,1649
61.1751,1630
61.1841,1618
61.1975,1614
61.1985,1602
61.2256,1601
61.2266,1607
61.2266,1603
61.2417,1609
61.2427,1606
61.2427,1608
61.2539,1613
61.2679,1605
61.2679,1608
61.2745,1609
61.2873,1617
61.2883,1629
61.2893,1627
61.3055,1639
61.3144,1652
61.3407,1660
61.3407,1674
61.3417,1673
61.3429,1684
61.3680,1691
61.3692,1691
61.3692,1697
61.3702,1699
61.3880,1705
61.3890,1712
61.3890,1709
61.4030,1722
61.4151,1730
61.4288,1746
61.4298,1779
61.4586,1823
61.4596,1903
61.4606,1998
61.4676,2103
61.4686,2230
61.4854,2357
61.4854,2500
61.4918,2631
61.5056,2748
61.5191,2857
61.5191,2933
61.5204,2982
61.5378,3003
61.5388,2986
61.5398,2957
61.5529,2885
61.5769,2796
61.5819,2695
61.5819,2575
61.5829,2449
61.5962,2309
61.6052,2173
61.6226,2054
61.6236,1930
61.6366,1824
61.6428,1726
61.6518,1645
61.6518,1588
61.6567,1528
61.6904,1484
61.7010,1452
61.7020,1429
61.7030,1426
61.7040,1420
